Time(s)	Phi(rad)	Angular velocity (rad/s)
0.00000000	0.01000000	0.00000000
0.00100000	0.00999998	-0.00003513
0.00200000	0.00999993	-0.00007026
0.00300000	0.00999984	-0.00010538
0.00400000	0.00999972	-0.00014051
0.00500000	0.00999956	-0.00017564
0.00600000	0.00999937	-0.00021076
0.00700000	0.00999914	-0.00024589
0.00800000	0.00999888	-0.00028101
0.00900000	0.00999858	-0.00031614
0.01000000	0.00999824	-0.00035126
0.01100000	0.00999787	-0.00038638
0.01200000	0.00999747	-0.00042150
0.01300000	0.00999703	-0.00045662
0.01400000	0.00999656	-0.00049174
0.01500000	0.00999605	-0.00052685
0.01600000	0.00999550	-0.00056197
0.01700000	0.00999492	-0.00059708
0.01800000	0.00999431	-0.00063219
0.01900000	0.00999366	-0.00066729
0.02000000	0.00999298	-0.00070240
0.02100000	0.00999226	-0.00073750
0.02200000	0.00999150	-0.00077260
0.02300000	0.00999071	-0.00080770
0.02400000	0.00998988	-0.00084279
0.02500000	0.00998902	-0.00087788
0.02600000	0.00998813	-0.00091297
0.02700000	0.00998720	-0.00094805
0.02800000	0.00998623	-0.00098313
0.02900000	0.00998523	-0.00101821
0.03000000	0.00998420	-0.00105329
0.03100000	0.00998313	-0.00108836
0.03200000	0.00998202	-0.00112342
0.03300000	0.00998088	-0.00115849
0.03400000	0.00997970	-0.00119355
0.03500000	0.00997849	-0.00122860
0.03600000	0.00997725	-0.00126365
0.03700000	0.00997596	-0.00129870
0.03800000	0.00997465	-0.00133374
0.03900000	0.00997330	-0.00136878
0.04000000	0.00997191	-0.00140381
0.04100000	0.00997049	-0.00143883
0.04200000	0.00996903	-0.00147386
0.04300000	0.00996754	-0.00150887
0.04400000	0.00996602	-0.00154388
0.04500000	0.00996445	-0.00157889
0.04600000	0.00996286	-0.00161389
0.04700000	0.00996123	-0.00164889
0.04800000	0.00995956	-0.00168387
0.04900000	0.00995786	-0.00171886
0.05000000	0.00995612	-0.00175383
0.05100000	0.00995435	-0.00178881
0.05200000	0.00995254	-0.00182377
0.05300000	0.00995070	-0.00185873
0.05400000	0.00994883	-0.00189368
0.05500000	0.00994692	-0.00192862
0.05600000	0.00994497	-0.00196356
0.05700000	0.00994299	-0.00199849
0.05800000	0.00994097	-0.00203342
0.05900000	0.00993892	-0.00206834
0.06000000	0.00993684	-0.00210325
0.06100000	0.00993472	-0.00213815
0.06200000	0.00993256	-0.00217304
0.06300000	0.00993037	-0.00220793
0.06400000	0.00992814	-0.00224281
0.06500000	0.00992588	-0.00227768
0.06600000	0.00992359	-0.00231255
0.06700000	0.00992126	-0.00234740
0.06800000	0.00991889	-0.00238225
0.06900000	0.00991649	-0.00241709
0.07000000	0.00991406	-0.00245192
0.07100000	0.00991159	-0.00248674
0.07200000	0.00990909	-0.00252155
0.07300000	0.00990655	-0.00255636
0.07400000	0.00990397	-0.00259115
0.07500000	0.00990136	-0.00262594
0.07600000	0.00989872	-0.00266072
0.07700000	0.00989604	-0.00269548
0.07800000	0.00989333	-0.00273024
0.07900000	0.00989058	-0.00276499
0.08000000	0.00988780	-0.00279973
0.08100000	0.00988498	-0.00283446
0.08200000	0.00988213	-0.00286918
0.08300000	0.00987925	-0.00290389
0.08400000	0.00987632	-0.00293858
0.08500000	0.00987337	-0.00297327
0.08600000	0.00987038	-0.00300795
0.08700000	0.00986735	-0.00304262
0.08800000	0.00986429	-0.00307728
0.08900000	0.00986120	-0.00311192
0.09000000	0.00985807	-0.00314656
0.09100000	0.00985490	-0.00318118
0.09200000	0.00985171	-0.00321579
0.09300000	0.00984847	-0.00325039
0.09400000	0.00984521	-0.00328498
0.09500000	0.00984190	-0.00331956
0.09600000	0.00983857	-0.00335413
0.09700000	0.00983519	-0.00338869
0.09800000	0.00983179	-0.00342323
0.09900000	0.00982835	-0.00345776
0.10000000	0.00982487	-0.00349228
0.10100000	0.00982136	-0.00352679
0.10200000	0.00981782	-0.00356128
0.10300000	0.00981424	-0.00359576
0.10400000	0.00981063	-0.00363023
0.10500000	0.00980698	-0.00366469
0.10600000	0.00980330	-0.00369913
0.10700000	0.00979958	-0.00373356
0.10800000	0.00979583	-0.00376798
0.10900000	0.00979205	-0.00380238
0.11000000	0.00978823	-0.00383677
0.11100000	0.00978437	-0.00387115
0.11200000	0.00978048	-0.00390552
0.11300000	0.00977656	-0.00393987
0.11400000	0.00977260	-0.00397420
0.11500000	0.00976861	-0.00400852
0.11600000	0.00976459	-0.00404283
0.11700000	0.00976053	-0.00407713
0.11800000	0.00975643	-0.00411141
0.11900000	0.00975231	-0.00414567
0.12000000	0.00974814	-0.00417992
0.12100000	0.00974395	-0.00421416
0.12200000	0.00973971	-0.00424838
0.12300000	0.00973545	-0.00428259
0.12400000	0.00973115	-0.00431678
0.12500000	0.00972681	-0.00435095
0.12600000	0.00972245	-0.00438511
0.12700000	0.00971804	-0.00441926
0.12800000	0.00971361	-0.00445339
0.12900000	0.00970914	-0.00448750
0.13000000	0.00970463	-0.00452160
0.13100000	0.00970009	-0.00455568
0.13200000	0.00969552	-0.00458975
0.13300000	0.00969092	-0.00462380
0.13400000	0.00968627	-0.00465784
0.13500000	0.00968160	-0.00469185
0.13600000	0.00967689	-0.00472585
0.13700000	0.00967215	-0.00475984
0.13800000	0.00966737	-0.00479381
0.13900000	0.00966256	-0.00482776
0.14000000	0.00965772	-0.00486169
0.14100000	0.00965284	-0.00489561
0.14200000	0.00964792	-0.00492951
0.14300000	0.00964298	-0.00496339
0.14400000	0.00963800	-0.00499726
0.14500000	0.00963298	-0.00503111
0.14600000	0.00962794	-0.00506494
0.14700000	0.00962285	-0.00509875
0.14800000	0.00961774	-0.00513254
0.14900000	0.00961259	-0.00516632
0.15000000	0.00960741	-0.00520008
0.15100000	0.00960219	-0.00523382
0.15200000	0.00959694	-0.00526754
0.15300000	0.00959165	-0.00530124
0.15400000	0.00958634	-0.00533493
0.15500000	0.00958098	-0.00536859
0.15600000	0.00957560	-0.00540224
0.15700000	0.00957018	-0.00543587
0.15800000	0.00956473	-0.00546947
0.15900000	0.00955924	-0.00550306
0.16000000	0.00955372	-0.00553663
0.16100000	0.00954817	-0.00557018
0.16200000	0.00954258	-0.00560372
0.16300000	0.00953696	-0.00563723
0.16400000	0.00953131	-0.00567072
0.16500000	0.00952562	-0.00570419
0.16600000	0.00951990	-0.00573764
0.16700000	0.00951414	-0.00577107
0.16800000	0.00950835	-0.00580449
0.16900000	0.00950253	-0.00583788
0.17000000	0.00949668	-0.00587125
0.17100000	0.00949079	-0.00590460
0.17200000	0.00948487	-0.00593793
0.17300000	0.00947892	-0.00597123
0.17400000	0.00947293	-0.00600452
0.17500000	0.00946691	-0.00603779
0.17600000	0.00946085	-0.00607103
0.17700000	0.00945476	-0.00610425
0.17800000	0.00944864	-0.00613746
0.17900000	0.00944249	-0.00617064
0.18000000	0.00943630	-0.00620380
0.18100000	0.00943008	-0.00623693
0.18200000	0.00942383	-0.00627005
0.18300000	0.00941754	-0.00630314
0.18400000	0.00941122	-0.00633621
0.18500000	0.00940487	-0.00636926
0.18600000	0.00939848	-0.00640229
0.18700000	0.00939206	-0.00643529
0.18800000	0.00938561	-0.00646827
0.18900000	0.00937913	-0.00650123
0.19000000	0.00937261	-0.00653417
0.19100000	0.00936606	-0.00656708
0.19200000	0.00935948	-0.00659997
0.19300000	0.00935286	-0.00663284
0.19400000	0.00934621	-0.00666568
0.19500000	0.00933953	-0.00669850
0.19600000	0.00933281	-0.00673130
0.19700000	0.00932607	-0.00676407
0.19800000	0.00931929	-0.00679682
0.19900000	0.00931247	-0.00682954
0.20000000	0.00930563	-0.00686224
0.20100000	0.00929875	-0.00689492
0.20200000	0.00929184	-0.00692757
0.20300000	0.00928489	-0.00696020
0.20400000	0.00927792	-0.00699280
0.20500000	0.00927091	-0.00702538
0.20600000	0.00926387	-0.00705794
0.20700000	0.00925679	-0.00709047
0.20800000	0.00924968	-0.00712297
0.20900000	0.00924255	-0.00715545
0.21000000	0.00923537	-0.00718791
0.21100000	0.00922817	-0.00722034
0.21200000	0.00922093	-0.00725274
0.21300000	0.00921366	-0.00728512
0.21400000	0.00920636	-0.00731747
0.21500000	0.00919903	-0.00734980
0.21600000	0.00919166	-0.00738210
0.21700000	0.00918426	-0.00741438
0.21800000	0.00917683	-0.00744663
0.21900000	0.00916937	-0.00747885
0.22000000	0.00916188	-0.00751105
0.22100000	0.00915435	-0.00754322
0.22200000	0.00914679	-0.00757536
0.22300000	0.00913920	-0.00760748
0.22400000	0.00913158	-0.00763957
0.22500000	0.00912392	-0.00767164
0.22600000	0.00911623	-0.00770367
0.22700000	0.00910851	-0.00773568
0.22800000	0.00910076	-0.00776767
0.22900000	0.00909298	-0.00779962
0.23000000	0.00908516	-0.00783155
0.23100000	0.00907731	-0.00786345
0.23200000	0.00906943	-0.00789532
0.23300000	0.00906152	-0.00792717
0.23400000	0.00905358	-0.00795899
0.23500000	0.00904561	-0.00799078
0.23600000	0.00903760	-0.00802254
0.23700000	0.00902956	-0.00805427
0.23800000	0.00902149	-0.00808598
0.23900000	0.00901339	-0.00811765
0.24000000	0.00900525	-0.00814930
0.24100000	0.00899709	-0.00818092
0.24200000	0.00898889	-0.00821251
0.24300000	0.00898066	-0.00824407
0.24400000	0.00897240	-0.00827561
0.24500000	0.00896411	-0.00830711
0.24600000	0.00895579	-0.00833859
0.24700000	0.00894744	-0.00837003
0.24800000	0.00893905	-0.00840145
0.24900000	0.00893063	-0.00843283
0.25000000	0.00892219	-0.00846419
0.25100000	0.00891371	-0.00849552
0.25200000	0.00890519	-0.00852681
0.25300000	0.00889665	-0.00855808
0.25400000	0.00888808	-0.00858932
0.25500000	0.00887947	-0.00862053
0.25600000	0.00887084	-0.00865170
0.25700000	0.00886217	-0.00868285
0.25800000	0.00885347	-0.00871397
0.25900000	0.00884474	-0.00874505
0.26000000	0.00883598	-0.00877611
0.26100000	0.00882719	-0.00880713
0.26200000	0.00881837	-0.00883812
0.26300000	0.00880951	-0.00886908
0.26400000	0.00880063	-0.00890001
0.26500000	0.00879171	-0.00893091
0.26600000	0.00878277	-0.00896178
0.26700000	0.00877379	-0.00899262
0.26800000	0.00876478	-0.00902342
0.26900000	0.00875574	-0.00905420
0.27000000	0.00874667	-0.00908494
0.27100000	0.00873757	-0.00911565
0.27200000	0.00872844	-0.00914632
0.27300000	0.00871928	-0.00917697
0.27400000	0.00871009	-0.00920758
0.27500000	0.00870087	-0.00923816
0.27600000	0.00869161	-0.00926871
0.27700000	0.00868233	-0.00929923
0.27800000	0.00867301	-0.00932971
0.27900000	0.00866367	-0.00936016
0.28000000	0.00865429	-0.00939058
0.28100000	0.00864489	-0.00942096
0.28200000	0.00863545	-0.00945132
0.28300000	0.00862598	-0.00948163
0.28400000	0.00861649	-0.00951192
0.28500000	0.00860696	-0.00954217
0.28600000	0.00859740	-0.00957239
0.28700000	0.00858782	-0.00960257
0.28800000	0.00857820	-0.00963272
0.28900000	0.00856855	-0.00966284
0.29000000	0.00855887	-0.00969292
0.29100000	0.00854916	-0.00972297
0.29200000	0.00853943	-0.00975299
0.29300000	0.00852966	-0.00978297
0.29400000	0.00851986	-0.00981291
0.29500000	0.00851003	-0.00984282
0.29600000	0.00850018	-0.00987270
0.29700000	0.00849029	-0.00990254
0.29800000	0.00848037	-0.00993235
0.29900000	0.00847042	-0.00996212
0.30000000	0.00846045	-0.00999186
0.30100000	0.00845044	-0.01002156
0.30200000	0.00844040	-0.01005123
0.30300000	0.00843034	-0.01008086
0.30400000	0.00842024	-0.01011046
0.30500000	0.00841012	-0.01014002
0.30600000	0.00839996	-0.01016955
0.30700000	0.00838978	-0.01019904
0.30800000	0.00837956	-0.01022849
0.30900000	0.00836932	-0.01025791
0.31000000	0.00835905	-0.01028729
0.31100000	0.00834875	-0.01031663
0.31200000	0.00833841	-0.01034594
0.31300000	0.00832805	-0.01037522
0.31400000	0.00831766	-0.01040445
0.31500000	0.00830724	-0.01043365
0.31600000	0.00829680	-0.01046282
0.31700000	0.00828632	-0.01049194
0.31800000	0.00827581	-0.01052103
0.31900000	0.00826528	-0.01055009
0.32000000	0.00825471	-0.01057910
0.32100000	0.00824412	-0.01060808
0.32200000	0.00823350	-0.01063702
0.32300000	0.00822284	-0.01066593
0.32400000	0.00821216	-0.01069479
0.32500000	0.00820146	-0.01072362
0.32600000	0.00819072	-0.01075242
0.32700000	0.00817995	-0.01078117
0.32800000	0.00816915	-0.01080988
0.32900000	0.00815833	-0.01083856
0.33000000	0.00814748	-0.01086720
0.33100000	0.00813660	-0.01089580
0.33200000	0.00812569	-0.01092437
0.33300000	0.00811475	-0.01095289
0.33400000	0.00810378	-0.01098138
0.33500000	0.00809278	-0.01100983
0.33600000	0.00808176	-0.01103824
0.33700000	0.00807071	-0.01106661
0.33800000	0.00805963	-0.01109494
0.33900000	0.00804852	-0.01112323
0.34000000	0.00803738	-0.01115148
0.34100000	0.00802622	-0.01117970
0.34200000	0.00801502	-0.01120787
0.34300000	0.00800380	-0.01123601
0.34400000	0.00799255	-0.01126411
0.34500000	0.00798127	-0.01129216
0.34600000	0.00796997	-0.01132018
0.34700000	0.00795863	-0.01134816
0.34800000	0.00794727	-0.01137609
0.34900000	0.00793588	-0.01140399
0.35000000	0.00792446	-0.01143185
0.35100000	0.00791302	-0.01145967
0.35200000	0.00790154	-0.01148744
0.35300000	0.00789004	-0.01151518
0.35400000	0.00787851	-0.01154288
0.35500000	0.00786695	-0.01157053
0.35600000	0.00785537	-0.01159815
0.35700000	0.00784376	-0.01162572
0.35800000	0.00783212	-0.01165325
0.35900000	0.00782045	-0.01168075
0.36000000	0.00780876	-0.01170820
0.36100000	0.00779704	-0.01173561
0.36200000	0.00778529	-0.01176298
0.36300000	0.00777351	-0.01179030
0.36400000	0.00776171	-0.01181759
0.36500000	0.00774987	-0.01184484
0.36600000	0.00773802	-0.01187204
0.36700000	0.00772613	-0.01189920
0.36800000	0.00771422	-0.01192632
0.36900000	0.00770228	-0.01195340
0.37000000	0.00769031	-0.01198043
0.37100000	0.00767832	-0.01200743
0.37200000	0.00766630	-0.01203438
0.37300000	0.00765425	-0.01206129
0.37400000	0.00764217	-0.01208815
0.37500000	0.00763007	-0.01211498
0.37600000	0.00761794	-0.01214176
0.37700000	0.00760579	-0.01216850
0.37800000	0.00759361	-0.01219520
0.37900000	0.00758140	-0.01222185
0.38000000	0.00756916	-0.01224846
0.38100000	0.00755690	-0.01227503
0.38200000	0.00754461	-0.01230155
0.38300000	0.00753230	-0.01232803
0.38400000	0.00751996	-0.01235447
0.38500000	0.00750759	-0.01238087
0.38600000	0.00749520	-0.01240722
0.38700000	0.00748277	-0.01243353
0.38800000	0.00747033	-0.01245979
0.38900000	0.00745786	-0.01248601
0.39000000	0.00744536	-0.01251219
0.39100000	0.00743283	-0.01253832
0.39200000	0.00742028	-0.01256441
0.39300000	0.00740770	-0.01259045
0.39400000	0.00739510	-0.01261645
0.39500000	0.00738247	-0.01264241
0.39600000	0.00736981	-0.01266832
0.39700000	0.00735713	-0.01269418
0.39800000	0.00734443	-0.01272001
0.39900000	0.00733169	-0.01274578
0.40000000	0.00731893	-0.01277152
0.40100000	0.00730615	-0.01279720
0.40200000	0.00729334	-0.01282285
0.40300000	0.00728050	-0.01284844
0.40400000	0.00726764	-0.01287400
0.40500000	0.00725476	-0.01289950
0.40600000	0.00724184	-0.01292497
0.40700000	0.00722891	-0.01295038
0.40800000	0.00721594	-0.01297575
0.40900000	0.00720295	-0.01300108
0.41000000	0.00718994	-0.01302636
0.41100000	0.00717690	-0.01305159
0.41200000	0.00716384	-0.01307678
0.41300000	0.00715075	-0.01310193
0.41400000	0.00713763	-0.01312702
0.41500000	0.00712449	-0.01315207
0.41600000	0.00711133	-0.01317708
0.41700000	0.00709814	-0.01320203
0.41800000	0.00708493	-0.01322694
0.41900000	0.00707169	-0.01325181
0.42000000	0.00705842	-0.01327663
0.42100000	0.00704513	-0.01330140
0.42200000	0.00703182	-0.01332613
0.42300000	0.00701848	-0.01335080
0.42400000	0.00700512	-0.01337543
0.42500000	0.00699173	-0.01340002
0.42600000	0.00697832	-0.01342456
0.42700000	0.00696488	-0.01344905
0.42800000	0.00695142	-0.01347349
0.42900000	0.00693793	-0.01349788
0.43000000	0.00692442	-0.01352223
0.43100000	0.00691089	-0.01354653
0.43200000	0.00689733	-0.01357079
0.43300000	0.00688375	-0.01359499
0.43400000	0.00687014	-0.01361915
0.43500000	0.00685651	-0.01364326
0.43600000	0.00684285	-0.01366732
0.43700000	0.00682918	-0.01369133
0.43800000	0.00681547	-0.01371530
0.43900000	0.00680174	-0.01373922
0.44000000	0.00678799	-0.01376309
0.44100000	0.00677422	-0.01378691
0.44200000	0.00676042	-0.01381068
0.44300000	0.00674660	-0.01383440
0.44400000	0.00673275	-0.01385808
0.44500000	0.00671888	-0.01388171
0.44600000	0.00670499	-0.01390529
0.44700000	0.00669107	-0.01392881
0.44800000	0.00667713	-0.01395229
0.44900000	0.00666317	-0.01397573
0.45000000	0.00664918	-0.01399911
0.45100000	0.00663517	-0.01402244
0.45200000	0.00662113	-0.01404572
0.45300000	0.00660708	-0.01406896
0.45400000	0.00659300	-0.01409214
0.45500000	0.00657889	-0.01411528
0.45600000	0.00656477	-0.01413836
0.45700000	0.00655062	-0.01416140
0.45800000	0.00653644	-0.01418439
0.45900000	0.00652225	-0.01420732
0.46000000	0.00650803	-0.01423021
0.46100000	0.00649379	-0.01425305
0.46200000	0.00647952	-0.01427583
0.46300000	0.00646523	-0.01429857
0.46400000	0.00645092	-0.01432126
0.46500000	0.00643659	-0.01434389
0.46600000	0.00642224	-0.01436648
0.46700000	0.00640786	-0.01438901
0.46800000	0.00639346	-0.01441150
0.46900000	0.00637904	-0.01443393
0.47000000	0.00636459	-0.01445631
0.47100000	0.00635012	-0.01447865
0.47200000	0.00633563	-0.01450093
0.47300000	0.00632112	-0.01452316
0.47400000	0.00630659	-0.01454534
0.47500000	0.00629203	-0.01456747
0.47600000	0.00627745	-0.01458954
0.47700000	0.00626285	-0.01461157
0.47800000	0.00624823	-0.01463355
0.47900000	0.00623358	-0.01465547
0.48000000	0.00621892	-0.01467734
0.48100000	0.00620423	-0.01469916
0.48200000	0.00618952	-0.01472093
0.48300000	0.00617479	-0.01474265
0.48400000	0.00616003	-0.01476431
0.48500000	0.00614526	-0.01478592
0.48600000	0.00613046	-0.01480749
0.48700000	0.00611564	-0.01482900
0.48800000	0.00610081	-0.01485045
0.48900000	0.00608594	-0.01487186
0.49000000	0.00607106	-0.01489321
0.49100000	0.00605616	-0.01491451
0.49200000	0.00604123	-0.01493576
0.49300000	0.00602629	-0.01495695
0.49400000	0.00601132	-0.01497810
0.49500000	0.00599633	-0.01499919
0.49600000	0.00598132	-0.01502023
0.49700000	0.00596629	-0.01504121
0.49800000	0.00595124	-0.01506214
0.49900000	0.00593617	-0.01508302
0.50000000	0.00592107	-0.01510385
0.50100000	0.00590596	-0.01512462
0.50200000	0.00589082	-0.01514534
0.50300000	0.00587567	-0.01516601
0.50400000	0.00586049	-0.01518662
0.50500000	0.00584529	-0.01520718
0.50600000	0.00583008	-0.01522769
0.50700000	0.00581484	-0.01524814
0.50800000	0.00579958	-0.01526854
0.50900000	0.00578430	-0.01528889
0.51000000	0.00576900	-0.01530918
0.51100000	0.00575368	-0.01532942
0.51200000	0.00573834	-0.01534961
0.51300000	0.00572298	-0.01536974
0.51400000	0.00570760	-0.01538981
0.51500000	0.00569220	-0.01540984
0.51600000	0.00567678	-0.01542981
0.51700000	0.00566134	-0.01544972
0.51800000	0.00564588	-0.01546958
0.51900000	0.00563041	-0.01548939
0.52000000	0.00561491	-0.01550914
0.52100000	0.00559939	-0.01552884
0.52200000	0.00558385	-0.01554848
0.52300000	0.00556829	-0.01556807
0.52400000	0.00555271	-0.01558760
0.52500000	0.00553711	-0.01560708
0.52600000	0.00552150	-0.01562650
0.52700000	0.00550586	-0.01564587
0.52800000	0.00549021	-0.01566518
0.52900000	0.00547453	-0.01568444
0.53000000	0.00545884	-0.01570365
0.53100000	0.00544312	-0.01572279
0.53200000	0.00542739	-0.01574189
0.53300000	0.00541164	-0.01576093
0.53400000	0.00539587	-0.01577991
0.53500000	0.00538008	-0.01579884
0.53600000	0.00536427	-0.01581771
0.53700000	0.00534845	-0.01583652
0.53800000	0.00533260	-0.01585528
0.53900000	0.00531673	-0.01587399
0.54000000	0.00530085	-0.01589264
0.54100000	0.00528495	-0.01591123
0.54200000	0.00526903	-0.01592977
0.54300000	0.00525309	-0.01594825
0.54400000	0.00523713	-0.01596667
0.54500000	0.00522116	-0.01598504
0.54600000	0.00520516	-0.01600336
0.54700000	0.00518915	-0.01602161
0.54800000	0.00517312	-0.01603981
0.54900000	0.00515707	-0.01605796
0.55000000	0.00514100	-0.01607605
0.55100000	0.00512492	-0.01609408
0.55200000	0.00510882	-0.01611205
0.55300000	0.00509269	-0.01612997
0.55400000	0.00507656	-0.01614783
0.55500000	0.00506040	-0.01616564
0.55600000	0.00504422	-0.01618338
0.55700000	0.00502803	-0.01620108
0.55800000	0.00501182	-0.01621871
0.55900000	0.00499559	-0.01623629
0.56000000	0.00497935	-0.01625381
0.56100000	0.00496309	-0.01627127
0.56200000	0.00494681	-0.01628868
0.56300000	0.00493051	-0.01630603
0.56400000	0.00491420	-0.01632332
0.56500000	0.00489786	-0.01634055
0.56600000	0.00488151	-0.01635773
0.56700000	0.00486515	-0.01637485
0.56800000	0.00484876	-0.01639191
0.56900000	0.00483236	-0.01640891
0.57000000	0.00481595	-0.01642586
0.57100000	0.00479951	-0.01644275
0.57200000	0.00478306	-0.01645958
0.57300000	0.00476659	-0.01647635
0.57400000	0.00475011	-0.01649307
0.57500000	0.00473361	-0.01650973
0.57600000	0.00471709	-0.01652633
0.57700000	0.00470055	-0.01654287
0.57800000	0.00468400	-0.01655935
0.57900000	0.00466744	-0.01657578
0.58000000	0.00465085	-0.01659214
0.58100000	0.00463425	-0.01660845
0.58200000	0.00461763	-0.01662470
0.58300000	0.00460100	-0.01664089
0.58400000	0.00458435	-0.01665703
0.58500000	0.00456769	-0.01667310
0.58600000	0.00455101	-0.01668912
