Time(s)	Phi(rad)	Angular velocity (rad/s)
0.0	0.00999998183363611	-3.633272778080555e-05
0.001	0.009999927334610439	-7.266532355930052e-05
0.002	0.009999836503120993	-0.0001089976553336538
0.003	0.009999709339497774	-0.00014532959110299314
0.004	0.009999545844202788	-0.00018166099886788458
0.005	0.009999346017830039	-0.00021799174663081193
0.006	0.009999109861105526	-0.0002543217023966562
0.007	0.009998837374887241	-0.00029065073417317494
0.008	0.009998528560165167	-0.0003269787099714817
0.009000000000000001	0.009998183418061277	-0.00036330549780652535
0.010000000000000002	0.009997801949829525	-0.0003996309656975696
0.011000000000000003	0.00999738415685584	-0.00043595498166867225
0.012000000000000004	0.00999693004065813	-0.00047227741374916455
0.013000000000000005	0.009996439602886268	-0.0005085981299741306
0.014000000000000005	0.009995912845322088	-0.0005449169983848865
0.015000000000000006	0.00999534976987938	-0.0005812338870294598
0.016000000000000007	0.009994750378603883	-0.0006175486639630687
0.017000000000000008	0.009994114673673277	-0.0006538611972486011
0.01800000000000001	0.009993442657397175	-0.0006901713549570942
0.01900000000000001	0.009992734332217113	-0.0007264790051682133
0.02000000000000001	0.009991989700706543	-0.0007627840159707312
0.02100000000000001	0.009991208765570825	-0.0007990862554630072
0.022000000000000013	0.009990391529647216	-0.0008353855917534659
0.023000000000000013	0.009989537995904858	-0.000871681892961077
0.024000000000000014	0.009988648167444769	-0.0009079750272158332
0.025000000000000015	0.009987722047499831	-0.0009442648626592304
0.026000000000000016	0.009986759639434779	-0.0009805512674447457
0.027000000000000017	0.009985760946746186	-0.0010168341097383164
0.028000000000000018	0.009984725973062457	-0.0010531132577188194
0.02900000000000002	0.009983654722143808	-0.0010893885795785494
0.03000000000000002	0.009982547197882257	-0.0011256599435236977
0.03100000000000002	0.009981403404301608	-0.0011619272177748315
0.03200000000000002	0.009980223345557437	-0.0011981902705673713
0.03300000000000002	0.009979007025937077	-0.0012344489701520706
0.03400000000000002	0.009977754449859603	-0.0012707031847954942
0.035000000000000024	0.009976465621875815	-0.0013069527827804964
0.036000000000000025	0.009975140546668222	-0.0013431976324066992
0.037000000000000026	0.009973779229051022	-0.0013794376019909715
0.03800000000000003	0.009972381673970092	-0.0014156725598679066
0.03900000000000003	0.009970947886502964	-0.0014519023743903006
0.04000000000000003	0.009969477871858805	-0.0014881269139296307
0.04100000000000003	0.009967971635378402	-0.0015243460468765332
0.04200000000000003	0.009966429182534143	-0.0015605596416412818
0.04300000000000003	0.009964850518929995	-0.0015967675666542645
0.04400000000000003	0.009963235650301484	-0.0016329696903664634
0.04500000000000003	0.009961584582515675	-0.0016691658812499302
0.046000000000000034	0.009959897321571152	-0.001705356007798266
0.047000000000000035	0.00995817387359799	-0.0017415399385270975
0.048000000000000036	0.009956414244857738	-0.001777717541974555
0.04900000000000004	0.0099546184417434	-0.0018138886867017502
0.05000000000000004	0.009952786470779403	-0.0018500532412932535
0.05100000000000004	0.009950918338621577	-0.001886211074357571
0.05200000000000004	0.009949014052057134	-0.0019223620545276215
0.05300000000000004	0.00994707361800464	-0.001958506050461215
0.05400000000000004	0.009945097043513988	-0.001994642930841528
0.05500000000000004	0.009943084335766378	-0.0020307725643775813
0.05600000000000004	0.009941035502074288	-0.0020668948198047173
0.057000000000000044	0.009938950549881443	-0.0021030095658850756
0.058000000000000045	0.009936829486762796	-0.002139116671408071
0.059000000000000045	0.009934672320424498	-0.0021752160051908692
0.060000000000000046	0.009932479058703864	-0.0022113074360788636
0.06100000000000005	0.009930249709569352	-0.002247390832946151
0.06200000000000005	0.00992798428112053	-0.002283466064696009
0.06300000000000004	0.009925682781588051	-0.0023195330002613716
0.06400000000000004	0.009923345219333617	-0.002355591508605305
0.06500000000000004	0.009920971602849955	-0.0023916414587214843
0.06600000000000004	0.009918561940760778	-0.0024276827196346683
0.06700000000000005	0.00991611624182076	-0.0024637151604011754
0.06800000000000005	0.009913634514915505	-0.0024997386501093605
0.06900000000000005	0.00991111676906151	-0.0025357530578800887
0.07000000000000005	0.009908563013406136	-0.0025717582528672124
0.07100000000000005	0.009905973257227575	-0.002607754104258045
0.07200000000000005	0.00990334750993481	-0.002643740481273836
0.07300000000000005	0.009900685781067588	-0.0026797172531702485
0.07400000000000005	0.009897988080296386	-0.002715684289237831
0.07500000000000005	0.009895254417422367	-0.002751641458802494
0.07600000000000005	0.009892484802377352	-0.0027875886312259835
0.07700000000000005	0.009889679245223784	-0.0028235256759063564
0.07800000000000006	0.009886837756154692	-0.002859452462278455
0.07900000000000006	0.009883960345493647	-0.00289536885981438
0.08000000000000006	0.009881047023694727	-0.002931274738023966
0.08100000000000006	0.009878097801342488	-0.0029671699664552543
0.08200000000000006	0.009875112689151913	-0.0030030544146949674
0.08300000000000006	0.00987209169796838	-0.003038927952368983
0.08400000000000006	0.009869034838767625	-0.0030747904491428067
0.08500000000000006	0.009865942122655694	-0.0031106417747220456
0.08600000000000006	0.009862813560868907	-0.0031464817988528823
0.08700000000000006	0.00985964916477382	-0.0031823103913225467
0.08800000000000006	0.009856448945867178	-0.0032181274219597908
0.08900000000000007	0.00985321291577588	-0.003253932760635359
0.09000000000000007	0.009849941086256931	-0.0032897262772624636
0.09100000000000007	0.0098466334691974	-0.003325507841797255
0.09200000000000007	0.00984329007661438	-0.003361277324239295
0.09300000000000007	0.009839910920654945	-0.0033970345946320287
0.09400000000000007	0.009836496013596098	-0.0034327795230632576
0.09500000000000007	0.009833045367844734	-0.00346851197966561
0.09600000000000007	0.009829558995937593	-0.0035042318346170135
0.09700000000000007	0.009826036910541215	-0.003539938958141166
0.09800000000000007	0.00982247912445189	-0.0035756332205080076
0.09900000000000007	0.009818885650595618	-0.0036113144920341916
0.10000000000000007	0.00981525650202806	-0.003646982643083556
0.10100000000000008	0.009811591691934483	-0.003682637544067594
0.10200000000000008	0.009807891233629726	-0.0037182790654459235
0.10300000000000008	0.009804155140558138	-0.00375390707772676
0.10400000000000008	0.009800383426293541	-0.003789521451467385
0.10500000000000008	0.009796576104539172	-0.0038251220572746176
0.10600000000000008	0.009792733189127633	-0.003860708765805283
0.10700000000000008	0.009788854694020847	-0.0038962814477666837
0.10800000000000008	0.009784940633310006	-0.003931839973917068
0.10900000000000008	0.009780991021215515	-0.0039673842150661
0.11000000000000008	0.009777005872086944	-0.00400291404207533
0.11100000000000008	0.009772985200402979	-0.00403842932585866
0.11200000000000009	0.009768929020771358	-0.004073929937382817
0.11300000000000009	0.009764837347928832	-0.004109415747667818
0.11400000000000009	0.009760710196741105	-0.004144886627787442
0.11500000000000009	0.009756547582202776	-0.004180342448869695
0.11600000000000009	0.009752349519437292	-0.00421578308209728
0.11700000000000009	0.00974811602369689	-0.004251208398708065
0.11800000000000009	0.009743847110362537	-0.004286618269995548
0.11900000000000009	0.009739542794943884	-0.00432201256730933
0.12000000000000009	0.009735203093079202	-0.004357391162055575
0.1210000000000001	0.009730828020535326	-0.004392753925697485
0.1220000000000001	0.009726417593207599	-0.00442810072975576
0.1230000000000001	0.009721971827119816	-0.004463431445809069
0.1240000000000001	0.009717490738424164	-0.004498745945494514
0.12500000000000008	0.009712974343401163	-0.004534044100508098
0.12600000000000008	0.009708422658459606	-0.00456932578260519
0.12700000000000009	0.009703835700136504	-0.0046045908636009915
0.12800000000000009	0.009699213485097018	-0.004639839215371002
0.1290000000000001	0.009694556030134407	-0.004675070709851484
0.1300000000000001	0.009689863352169962	-0.0047102852190399275
0.1310000000000001	0.009685135468252943	-0.004745482614995517
0.1320000000000001	0.009680372395560525	-0.004780662769839594
0.1330000000000001	0.009675574151397727	-0.0048158255557561236
0.1340000000000001	0.009670740753197352	-0.0048509708449921566
0.1350000000000001	0.009665872218519927	-0.0048860985098582955
0.1360000000000001	0.009660968565053633	-0.004921208422729158
0.1370000000000001	0.009656029810614248	-0.004956300456043838
0.1380000000000001	0.009651055973145074	-0.0049913744823063735
0.1390000000000001	0.009646047070716878	-0.005026430374086204
0.1400000000000001	0.009641003121527826	-0.00506146800401864
0.1410000000000001	0.009635924143903414	-0.00509648724480532
0.1420000000000001	0.009630810156296403	-0.005131487969214677
0.1430000000000001	0.009625661177286754	-0.005166470050082396
0.1440000000000001	0.009620477225581556	-0.005201433360311881
0.1450000000000001	0.009615258320014962	-0.005236377772874714
0.1460000000000001	0.00961000447954812	-0.005271303160811118
0.1470000000000001	0.0096047157232691	-0.005306209397230413
0.1480000000000001	0.00959939207039283	-0.005341096355311484
0.1490000000000001	0.009594033540261023	-0.005375963908303239
0.1500000000000001	0.00958864015234211	-0.005410811929525067
0.1510000000000001	0.009583211926231164	-0.005445640292367301
0.1520000000000001	0.009577748881649835	-0.005480448870291678
0.1530000000000001	0.009572251038446274	-0.005515237536831795
0.1540000000000001	0.009566718416595062	-0.005550006165593575
0.1550000000000001	0.009561151036197138	-0.005584754630255718
0.1560000000000001	0.009555548917479725	-0.005619482804570168
0.1570000000000001	0.00954991208079626	-0.005654190562362564
0.1580000000000001	0.009544240546626313	-0.005688877777532705
0.1590000000000001	0.00953853433557552	-0.005723544324055003
0.16000000000000011	0.009532793468375505	-0.0057581900759789435
0.16100000000000012	0.0095270179658838	-0.005792814907429542
0.16200000000000012	0.009521207849083781	-0.005827418692607803
0.16300000000000012	0.009515363139084581	-0.005862001305791173
0.16400000000000012	0.009509483857121019	-0.005896562621334003
0.16500000000000012	0.009503570024553518	-0.005931102513667998
0.16600000000000012	0.009497621662868033	-0.005965620857302679
0.16700000000000012	0.009491638793675969	-0.006000117526825837
0.16800000000000012	0.009485621438714105	-0.006034592396903987
0.16900000000000012	0.009479569619844511	-0.006069045342282825
0.17000000000000012	0.009473483359054475	-0.006103476237787682
0.17100000000000012	0.009467362678456418	-0.006137884958323979
0.17200000000000013	0.009461207600287817	-0.006172271378877683
0.17300000000000013	0.009455018146911121	-0.006206635374515758
0.17400000000000013	0.00944879434081367	-0.006240976820386621
0.17500000000000013	0.009442536204607617	-0.006275295591720596
0.17600000000000013	0.009436243761029842	-0.006309591563830366
0.17700000000000013	0.009429917032941873	-0.006343864612111424
0.17800000000000013	0.009423556043329796	-0.006378114612042532
0.17900000000000013	0.009417160815304181	-0.006412341439186165
0.18000000000000013	0.009410731372099993	-0.00644654496918897
0.18100000000000013	0.009404267737076508	-0.0064807250777822135
0.18200000000000013	0.009397769933717225	-0.006514881640782235
0.18300000000000013	0.009391237985629788	-0.006549014534090897
0.18400000000000014	0.009384671916545895	-0.006583123633696038
0.18500000000000014	0.009378071750321211	-0.00661720881567192
0.18600000000000014	0.009371437510935285	-0.006651269956179679
0.18700000000000014	0.009364769222491461	-0.006685306931467777
0.18800000000000014	0.00935806690921679	-0.006719319617872451
0.18900000000000014	0.009351330595461945	-0.00675330789181816
0.19000000000000014	0.009344560305701128	-0.006787271629818037
0.19100000000000014	0.009337756064531981	-0.006821210708474335
0.19200000000000014	0.009330917896675504	-0.006855125004478877
0.19300000000000014	0.009324045826975958	-0.006889014394613502
0.19400000000000014	0.009317139880400775	-0.006922878755750517
0.19500000000000015	0.009310200082040473	-0.006956717964853139
0.19600000000000015	0.009303226457108559	-0.006990531898975943
0.19700000000000015	0.009296219030941438	-0.007024320435265311
0.19800000000000015	0.009289177828998326	-0.007058083450959879
0.19900000000000015	0.00928210287686115	-0.007091820823390979
0.20000000000000015	0.009274994200234463	-0.007125532429983086
0.20100000000000015	0.009267851824945345	-0.007159218148254266
0.20200000000000015	0.009260675776943311	-0.007192877855816617
0.20300000000000015	0.009253466082300215	-0.007226511430376717
0.20400000000000015	0.009246222767210158	-0.007260118749736065
0.20500000000000015	0.009238945857989393	-0.007293699691791529
0.20600000000000016	0.00923163538107623	-0.007327254134535785
0.20700000000000016	0.009224291363030934	-0.0073607819560577645
0.20800000000000016	0.009216913830535634	-0.007394283034543094
0.20900000000000016	0.009209502810394224	-0.007427757248274538
0.21000000000000016	0.00920205832953227	-0.007461204475632445
0.21100000000000016	0.009194580414996907	-0.007494624595095183
0.21200000000000016	0.00918706909395674	-0.007528017485239588
0.21300000000000016	0.009179524393701751	-0.007561383024741398
0.21400000000000016	0.009171946341643193	-0.007594721092375699
0.21500000000000016	0.009164334965313495	-0.007628031567017363
0.21600000000000016	0.009156690292366165	-0.007661314327641489
0.21700000000000016	0.009149012350575681	-0.007694569253323843
0.21800000000000017	0.009141301167837398	-0.007727796223241294
0.21900000000000017	0.00913355677216744	-0.007760995116672258
0.22000000000000017	0.009125779191702606	-0.007794165812997134
0.22100000000000017	0.009117968454700257	-0.00782730819169874
0.22200000000000017	0.009110124589538226	-0.007860422132362755
0.22300000000000017	0.009102247624714706	-0.007893507514678155
0.22400000000000017	0.009094337588848148	-0.007926564218437649
0.22500000000000017	0.00908639451067716	-0.007959592123538115
0.22600000000000017	0.009078418419060399	-0.007992591109981038
0.22700000000000017	0.009070409342976472	-0.008025561057872948
0.22800000000000017	0.009062367311523822	-0.008058501847425853
0.22900000000000018	0.009054292353920631	-0.00809141335895767
0.23000000000000018	0.009046184499504705	-0.008124295472892668
0.23100000000000018	0.009038043777733377	-0.008157148069761897
0.23200000000000018	0.009029870218183394	-0.008189971030203625
0.23300000000000018	0.009021663850550811	-0.00822276423496377
0.23400000000000018	0.009013424704650882	-0.00825552756489633
0.23500000000000018	0.009005152810417952	-0.008288260900963823
0.23600000000000018	0.008996848197905352	-0.008320964124237716
0.23700000000000018	0.008988510897285284	-0.008353637115898855
0.23800000000000018	0.008980140938848717	-0.0083862797572379
0.23900000000000018	0.00897173835300527	-0.008418891929655755
0.24000000000000019	0.008963303170283111	-0.008451473514663995
0.2410000000000002	0.008954835421328836	-0.008484024393885303
0.2420000000000002	0.008946335136907365	-0.008516544449053897
0.2430000000000002	0.00893780234790183	-0.00854903356201596
0.2440000000000002	0.008929237085313459	-0.00858149161473007
0.2450000000000002	0.00892063938026146	-0.008613918489267626
0.2460000000000002	0.008912009263982919	-0.008646314067813278
0.2470000000000002	0.008903346767832679	-0.008678678232665358
0.2480000000000002	0.008894651923283228	-0.008711010866236303
0.2490000000000002	0.008885924761924582	-0.008743311851053084
0.25000000000000017	0.008877165315464177	-0.008775581069757635
0.25100000000000017	0.008868373615726744	-0.008807818405107276
0.25200000000000017	0.008859549694654203	-0.00884002373997514
0.25300000000000017	0.008850693584305541	-0.008872196957350602
0.25400000000000017	0.008841805316856697	-0.008904337940339697
0.25500000000000017	0.008832884924600444	-0.00893644657216555
0.25600000000000017	0.008823932439946277	-0.0089685227361688
0.2570000000000002	0.008814947895420288	-0.00900056631580802
0.2580000000000002	0.008805931323665054	-0.009032577194660149
0.2590000000000002	0.008796882757439515	-0.009064555256420902
0.2600000000000002	0.008787802229618853	-0.009096500384905205
0.2610000000000002	0.008778689773194378	-0.00912841246404761
0.2620000000000002	0.008769545421273403	-0.009160291377902717
0.2630000000000002	0.00876036920707913	-0.0091921370106456
0.2640000000000002	0.008751161163950522	-0.009223949246572223
0.2650000000000002	0.008741921325342185	-0.009255727970099862
0.2660000000000002	0.008732649724824251	-0.009287473065767523
0.2670000000000002	0.00872334639608225	-0.009319184418236367
0.2680000000000002	0.008714011372916988	-0.009350861912290124
0.2690000000000002	0.008704644689244425	-0.009382505432835513
0.2700000000000002	0.008695246379095556	-0.00941411486490266
0.2710000000000002	0.008685816476616282	-0.009445690093645515
0.2720000000000002	0.008676355016067288	-0.009477231004342272
0.2730000000000002	0.00866686203182392	-0.009508737482395785
0.2740000000000002	0.008657337558376055	-0.00954020941333398
0.2750000000000002	0.008647781630327983	-0.009571646682810278
0.2760000000000002	0.008638194282398275	-0.009603049176604003
0.2770000000000002	0.008628575549419662	-0.009634416780620804
0.2780000000000002	0.008618925466338904	-0.009665749380893063
0.2790000000000002	0.008609244068216667	-0.009697046863580316
0.2800000000000002	0.008599531390227391	-0.009728309114969661
0.2810000000000002	0.008589787467659168	-0.009759536021476174
0.2820000000000002	0.00858001233591361	-0.00979072746964332
0.2830000000000002	0.008570206030505716	-0.009821883346143366
0.2840000000000002	0.008560368587063756	-0.009853003537777792
0.2850000000000002	0.008550500041329128	-0.009884087931477705
0.2860000000000002	0.008540600429156239	-0.009915136414304249
0.2870000000000002	0.008530669786512363	-0.009946148873449011
0.2880000000000002	0.008520708149477522	-0.009977125196234437
0.2890000000000002	0.008510715554244349	-0.010008065270114237
0.2900000000000002	0.008500692037117955	-0.010038968982673795
0.2910000000000002	0.008490637634515803	-0.010069836221630579
0.2920000000000002	0.00848055238296757	-0.010100666874834548
0.2930000000000002	0.008470436319115017	-0.010131460830268559
0.2940000000000002	0.008460289479711858	-0.010162217976048774
0.2950000000000002	0.008450111901623621	-0.01019293820042507
0.2960000000000002	0.008439903621827517	-0.010223621391781436
0.2970000000000002	0.008429664677412308	-0.010254267438636389
0.2980000000000002	0.008419395105578169	-0.010284876229643374
0.2990000000000002	0.008409094943636551	-0.01031544765359117
0.3000000000000002	0.008398764229010054	-0.010345981599404289
0.3010000000000002	0.00838840299923228	-0.010376477956143389
0.3020000000000002	0.008378011291947705	-0.010406936613005669
0.3030000000000002	0.00836758914491154	-0.010437357459325275
0.3040000000000002	0.00835713659598959	-0.010467740384573702
0.3050000000000002	0.008346653683158123	-0.010498085278360197
0.3060000000000002	0.008336140444503726	-0.010528392030432154
0.3070000000000002	0.008325596918223172	-0.010558660530675524
0.3080000000000002	0.008315023142623277	-0.010588890669115204
0.3090000000000002	0.008304419156120763	-0.01061908233591545
0.3100000000000002	0.008293784997242114	-0.010649235421380262
0.3110000000000002	0.008283120704623446	-0.010679349815953795
0.3120000000000002	0.008272426317010358	-0.010709425410220748
0.3130000000000002	0.008261701873257794	-0.010739462094906765
0.3140000000000002	0.008250947412329901	-0.010769459760878834
0.3150000000000002	0.008240162973299889	-0.01079941829914568
0.3160000000000002	0.008229348595349888	-0.010829337600858165
0.3170000000000002	0.008218504317770804	-0.010859217557309677
0.3180000000000002	0.008207630179962181	-0.010889058059936532
