Time(s) 	 Phi(rad) 	 Angular velocity (rad/s)
0.00000000	-0.50000000	0.00000000
0.00100000	-0.49999914	0.00172500
0.00200000	-0.49999655	0.00345000
0.00300000	-0.49999224	0.00517499
0.00400000	-0.49998620	0.00689996
0.00500000	-0.49997844	0.00862491
0.00600000	-0.49996895	0.01034983
0.00700000	-0.49995774	0.01207472
0.00800000	-0.49994480	0.01379957
0.00900000	-0.49993014	0.01552438
0.01000000	-0.49991375	0.01724914
0.01100000	-0.49989564	0.01897385
0.01200000	-0.49987580	0.02069849
0.01300000	-0.49985424	0.02242307
0.01400000	-0.49983096	0.02414758
0.01500000	-0.49980595	0.02587202
0.01600000	-0.49977921	0.02759637
0.01700000	-0.49975076	0.02932064
0.01800000	-0.49972057	0.03104481
0.01900000	-0.49968867	0.03276889
0.02000000	-0.49965504	0.03449286
0.02100000	-0.49961968	0.03621673
0.02200000	-0.49958260	0.03794048
0.02300000	-0.49954380	0.03966412
0.02400000	-0.49950327	0.04138762
0.02500000	-0.49946102	0.04311100
0.02600000	-0.49941705	0.04483425
0.02700000	-0.49937136	0.04655735
0.02800000	-0.49932394	0.04828031
0.02900000	-0.49927480	0.05000311
0.03000000	-0.49922393	0.05172576
0.03100000	-0.49917134	0.05344824
0.03200000	-0.49911703	0.05517056
0.03300000	-0.49906100	0.05689270
0.03400000	-0.49900325	0.05861467
0.03500000	-0.49894377	0.06033645
0.03600000	-0.49888258	0.06205804
0.03700000	-0.49881966	0.06377944
0.03800000	-0.49875502	0.06550064
0.03900000	-0.49868866	0.06722163
0.04000000	-0.49862057	0.06894241
0.04100000	-0.49855077	0.07066297
0.04200000	-0.49847925	0.07238331
0.04300000	-0.49840601	0.07410342
0.04400000	-0.49833104	0.07582330
0.04500000	-0.49825436	0.07754294
0.04600000	-0.49817596	0.07926234
0.04700000	-0.49809583	0.08098149
0.04800000	-0.49801399	0.08270039
0.04900000	-0.49793043	0.08441902
0.05000000	-0.49784516	0.08613739
0.05100000	-0.49775816	0.08785549
0.05200000	-0.49766944	0.08957331
0.05300000	-0.49757901	0.09129085
0.05400000	-0.49748686	0.09300811
0.05500000	-0.49739300	0.09472507
0.05600000	-0.49729741	0.09644173
0.05700000	-0.49720011	0.09815810
0.05800000	-0.49710110	0.09987415
0.05900000	-0.49700037	0.10158989
0.06000000	-0.49689792	0.10330530
0.06100000	-0.49679375	0.10502040
0.06200000	-0.49668788	0.10673516
0.06300000	-0.49658028	0.10844959
0.06400000	-0.49647098	0.11016368
0.06500000	-0.49635996	0.11187742
0.06600000	-0.49624722	0.11359080
0.06700000	-0.49613278	0.11530383
0.06800000	-0.49601662	0.11701650
0.06900000	-0.49589874	0.11872880
0.07000000	-0.49577916	0.12044073
0.07100000	-0.49565786	0.12215228
0.07200000	-0.49553485	0.12386344
0.07300000	-0.49541014	0.12557421
0.07400000	-0.49528371	0.12728459
0.07500000	-0.49515557	0.12899457
0.07600000	-0.49502572	0.13070414
0.07700000	-0.49489416	0.13241330
0.07800000	-0.49476089	0.13412204
0.07900000	-0.49462591	0.13583036
0.08000000	-0.49448923	0.13753825
0.08100000	-0.49435084	0.13924571
0.08200000	-0.49421074	0.14095273
0.08300000	-0.49406893	0.14265931
0.08400000	-0.49392542	0.14436544
0.08500000	-0.49378020	0.14607111
0.08600000	-0.49363328	0.14777633
0.08700000	-0.49348465	0.14948107
0.08800000	-0.49333432	0.15118535
0.08900000	-0.49318228	0.15288915
0.09000000	-0.49302854	0.15459247
0.09100000	-0.49287309	0.15629530
0.09200000	-0.49271595	0.15799764
0.09300000	-0.49255710	0.15969948
0.09400000	-0.49239655	0.16140082
0.09500000	-0.49223430	0.16310164
0.09600000	-0.49207035	0.16480196
0.09700000	-0.49190469	0.16650175
0.09800000	-0.49173734	0.16820102
0.09900000	-0.49156829	0.16989976
0.10000000	-0.49139754	0.17159796
0.10100000	-0.49122510	0.17329563
0.10200000	-0.49105095	0.17499274
0.10300000	-0.49087511	0.17668930
0.10400000	-0.49069757	0.17838531
0.10500000	-0.49051834	0.18008075
0.10600000	-0.49033741	0.18177563
0.10700000	-0.49015479	0.18346993
0.10800000	-0.48997047	0.18516365
0.10900000	-0.48978446	0.18685679
0.11000000	-0.48959676	0.18854934
0.11100000	-0.48940737	0.19024129
0.11200000	-0.48921628	0.19193264
0.11300000	-0.48902350	0.19362338
0.11400000	-0.48882903	0.19531352
0.11500000	-0.48863287	0.19700303
0.11600000	-0.48843503	0.19869193
0.11700000	-0.48823549	0.20038020
0.11800000	-0.48803427	0.20206783
0.11900000	-0.48783135	0.20375482
0.12000000	-0.48762676	0.20544118
0.12100000	-0.48742047	0.20712688
0.12200000	-0.48721250	0.20881193
0.12300000	-0.48700285	0.21049631
0.12400000	-0.48679151	0.21218003
0.12500000	-0.48657849	0.21386308
0.12600000	-0.48636378	0.21554546
0.12700000	-0.48614740	0.21722715
0.12800000	-0.48592933	0.21890816
0.12900000	-0.48570958	0.22058847
0.13000000	-0.48548815	0.22226809
0.13100000	-0.48526505	0.22394700
0.13200000	-0.48504026	0.22562520
0.13300000	-0.48481380	0.22730269
0.13400000	-0.48458566	0.22897946
0.13500000	-0.48435584	0.23065550
0.13600000	-0.48412435	0.23233082
0.13700000	-0.48389118	0.23400540
0.13800000	-0.48365633	0.23567924
0.13900000	-0.48341982	0.23735233
0.14000000	-0.48318163	0.23902467
0.14100000	-0.48294177	0.24069625
0.14200000	-0.48270024	0.24236707
0.14300000	-0.48245704	0.24403712
0.14400000	-0.48221216	0.24570640
0.14500000	-0.48196562	0.24737490
0.14600000	-0.48171741	0.24904261
0.14700000	-0.48146754	0.25070954
0.14800000	-0.48121600	0.25237567
0.14900000	-0.48096279	0.25404100
0.15000000	-0.48070791	0.25570552
0.15100000	-0.48045138	0.25736924
0.15200000	-0.48019318	0.25903213
0.15300000	-0.47993331	0.26069421
0.15400000	-0.47967179	0.26235545
0.15500000	-0.47940860	0.26401587
0.15600000	-0.47914376	0.26567545
0.15700000	-0.47887725	0.26733418
0.15800000	-0.47860909	0.26899206
0.15900000	-0.47833927	0.27064909
0.16000000	-0.47806779	0.27230526
0.16100000	-0.47779466	0.27396057
0.16200000	-0.47751987	0.27561501
0.16300000	-0.47724343	0.27726856
0.16400000	-0.47696533	0.27892124
0.16500000	-0.47668559	0.28057303
0.16600000	-0.47640419	0.28222393
0.16700000	-0.47612114	0.28387394
0.16800000	-0.47583644	0.28552304
0.16900000	-0.47555009	0.28717123
0.17000000	-0.47526210	0.28881851
0.17100000	-0.47497246	0.29046487
0.17200000	-0.47468117	0.29211030
0.17300000	-0.47438824	0.29375481
0.17400000	-0.47409366	0.29539838
0.17500000	-0.47379744	0.29704101
0.17600000	-0.47349958	0.29868270
0.17700000	-0.47320008	0.30032343
0.17800000	-0.47289893	0.30196321
0.17900000	-0.47259615	0.30360202
0.18000000	-0.47229173	0.30523987
0.18100000	-0.47198567	0.30687675
0.18200000	-0.47167798	0.30851265
0.18300000	-0.47136865	0.31014756
0.18400000	-0.47105768	0.31178149
0.18500000	-0.47074508	0.31341442
0.18600000	-0.47043085	0.31504635
0.18700000	-0.47011499	0.31667728
0.18800000	-0.46979750	0.31830720
0.18900000	-0.46947838	0.31993610
0.19000000	-0.46915763	0.32156399
0.19100000	-0.46883525	0.32319084
0.19200000	-0.46851125	0.32481667
0.19300000	-0.46818562	0.32644145
0.19400000	-0.46785836	0.32806520
0.19500000	-0.46752949	0.32968790
0.19600000	-0.46719899	0.33130954
0.19700000	-0.46686687	0.33293013
0.19800000	-0.46653313	0.33454965
0.19900000	-0.46619777	0.33616810
0.20000000	-0.46586079	0.33778548
0.20100000	-0.46552220	0.33940178
0.20200000	-0.46518199	0.34101700
0.20300000	-0.46484017	0.34263112
0.20400000	-0.46449673	0.34424415
0.20500000	-0.46415168	0.34585608
0.20600000	-0.46380502	0.34746690
0.20700000	-0.46345675	0.34907661
0.20800000	-0.46310686	0.35068520
0.20900000	-0.46275538	0.35229267
0.21000000	-0.46240228	0.35389901
0.21100000	-0.46204758	0.35550421
0.21200000	-0.46169127	0.35710828
0.21300000	-0.46133336	0.35871121
0.21400000	-0.46097385	0.36031299
0.21500000	-0.46061274	0.36191361
0.21600000	-0.46025002	0.36351307
0.21700000	-0.45988571	0.36511136
0.21800000	-0.45951980	0.36670849
0.21900000	-0.45915229	0.36830444
0.22000000	-0.45878319	0.36989921
0.22100000	-0.45841250	0.37149279
0.22200000	-0.45804021	0.37308518
0.22300000	-0.45766633	0.37467637
0.22400000	-0.45729086	0.37626636
0.22500000	-0.45691379	0.37785515
0.22600000	-0.45653515	0.37944271
0.22700000	-0.45615491	0.38102907
0.22800000	-0.45577309	0.38261419
0.22900000	-0.45538968	0.38419809
0.23000000	-0.45500469	0.38578075
0.23100000	-0.45461812	0.38736217
0.23200000	-0.45422997	0.38894235
0.23300000	-0.45384024	0.39052128
0.23400000	-0.45344893	0.39209895
0.23500000	-0.45305604	0.39367536
0.23600000	-0.45266158	0.39525051
0.23700000	-0.45226554	0.39682438
0.23800000	-0.45186793	0.39839697
0.23900000	-0.45146875	0.39996828
0.24000000	-0.45106799	0.40153831
0.24100000	-0.45066567	0.40310704
0.24200000	-0.45026178	0.40467448
0.24300000	-0.44985632	0.40624061
0.24400000	-0.44944930	0.40780543
0.24500000	-0.44904071	0.40936893
0.24600000	-0.44863056	0.41093112
0.24700000	-0.44821885	0.41249198
0.24800000	-0.44780558	0.41405152
0.24900000	-0.44739075	0.41560971
0.25000000	-0.44697436	0.41716657
0.25100000	-0.44655642	0.41872208
0.25200000	-0.44613692	0.42027624
0.25300000	-0.44571586	0.42182904
0.25400000	-0.44529326	0.42338048
0.25500000	-0.44486910	0.42493056
0.25600000	-0.44444340	0.42647926
0.25700000	-0.44401615	0.42802658
0.25800000	-0.44358735	0.42957252
0.25900000	-0.44315700	0.43111707
0.26000000	-0.44272511	0.43266023
0.26100000	-0.44229168	0.43420199
0.26200000	-0.44185671	0.43574235
0.26300000	-0.44142020	0.43728129
0.26400000	-0.44098215	0.43881882
0.26500000	-0.44054256	0.44035494
0.26600000	-0.44010144	0.44188962
0.26700000	-0.43965878	0.44342288
0.26800000	-0.43921459	0.44495470
0.26900000	-0.43876887	0.44648508
0.27000000	-0.43832162	0.44801401
0.27100000	-0.43787285	0.44954149
0.27200000	-0.43742254	0.45106752
0.27300000	-0.43697071	0.45259208
0.27400000	-0.43651736	0.45411518
0.27500000	-0.43606248	0.45563680
0.27600000	-0.43560609	0.45715694
0.27700000	-0.43514817	0.45867561
0.27800000	-0.43468873	0.46019278
0.27900000	-0.43422778	0.46170846
0.28000000	-0.43376532	0.46322264
0.28100000	-0.43330134	0.46473532
0.28200000	-0.43283585	0.46624649
0.28300000	-0.43236885	0.46775614
0.28400000	-0.43190034	0.46926428
0.28500000	-0.43143032	0.47077089
0.28600000	-0.43095880	0.47227597
0.28700000	-0.43048577	0.47377951
0.28800000	-0.43001124	0.47528152
0.28900000	-0.42953521	0.47678197
0.29000000	-0.42905767	0.47828088
0.29100000	-0.42857865	0.47977823
0.29200000	-0.42809812	0.48127402
0.29300000	-0.42761610	0.48276824
0.29400000	-0.42713258	0.48426089
0.29500000	-0.42664758	0.48575196
0.29600000	-0.42616108	0.48724146
0.29700000	-0.42567309	0.48872936
0.29800000	-0.42518362	0.49021567
0.29900000	-0.42469266	0.49170038
0.30000000	-0.42420022	0.49318349
0.30100000	-0.42370630	0.49466499
0.30200000	-0.42321089	0.49614488
0.30300000	-0.42271401	0.49762315
0.30400000	-0.42221565	0.49909979
0.30500000	-0.42171581	0.50057481
0.30600000	-0.42121450	0.50204819
0.30700000	-0.42071171	0.50351993
0.30800000	-0.42020746	0.50499003
0.30900000	-0.41970174	0.50645848
0.31000000	-0.41919454	0.50792527
0.31100000	-0.41868589	0.50939041
0.31200000	-0.41817576	0.51085387
0.31300000	-0.41766418	0.51231567
0.31400000	-0.41715113	0.51377579
0.31500000	-0.41663663	0.51523423
0.31600000	-0.41612067	0.51669099
0.31700000	-0.41560325	0.51814605
0.31800000	-0.41508437	0.51959942
0.31900000	-0.41456405	0.52105108
0.32000000	-0.41404227	0.52250104
0.32100000	-0.41351905	0.52394929
0.32200000	-0.41299438	0.52539582
0.32300000	-0.41246826	0.52684063
0.32400000	-0.41194069	0.52828371
0.32500000	-0.41141169	0.52972506
0.32600000	-0.41088125	0.53116467
0.32700000	-0.41034936	0.53260254
0.32800000	-0.40981604	0.53403866
0.32900000	-0.40928129	0.53547303
0.33000000	-0.40874510	0.53690564
0.33100000	-0.40820748	0.53833649
0.33200000	-0.40766842	0.53976557
0.33300000	-0.40712795	0.54119288
0.33400000	-0.40658604	0.54261840
0.33500000	-0.40604271	0.54404215
0.33600000	-0.40549796	0.54546411
0.33700000	-0.40495178	0.54688427
0.33800000	-0.40440419	0.54830263
0.33900000	-0.40385518	0.54971919
0.34000000	-0.40330475	0.55113394
0.34100000	-0.40275291	0.55254688
0.34200000	-0.40219966	0.55395800
0.34300000	-0.40164500	0.55536729
0.34400000	-0.40108892	0.55677476
0.34500000	-0.40053145	0.55818039
0.34600000	-0.39997256	0.55958418
0.34700000	-0.39941228	0.56098613
0.34800000	-0.39885059	0.56238623
0.34900000	-0.39828751	0.56378447
0.35000000	-0.39772303	0.56518085
0.35100000	-0.39715715	0.56657537
0.35200000	-0.39658988	0.56796802
0.35300000	-0.39602121	0.56935879
0.35400000	-0.39545116	0.57074769
0.35500000	-0.39487972	0.57213470
0.35600000	-0.39430689	0.57351982
0.35700000	-0.39373268	0.57490304
0.35800000	-0.39315709	0.57628437
0.35900000	-0.39258011	0.57766379
0.36000000	-0.39200176	0.57904130
0.36100000	-0.39142203	0.58041689
0.36200000	-0.39084093	0.58179057
0.36300000	-0.39025845	0.58316232
0.36400000	-0.38967460	0.58453214
0.36500000	-0.38908939	0.58590002
0.36600000	-0.38850280	0.58726597
0.36700000	-0.38791485	0.58862997
0.36800000	-0.38732554	0.58999202
0.36900000	-0.38673487	0.59135211
0.37000000	-0.38614284	0.59271025
0.37100000	-0.38554945	0.59406642
0.37200000	-0.38495471	0.59542062
0.37300000	-0.38435861	0.59677285
0.37400000	-0.38376116	0.59812309
0.37500000	-0.38316237	0.59947135
0.37600000	-0.38256222	0.60081762
0.37700000	-0.38196073	0.60216190
0.37800000	-0.38135790	0.60350418
0.37900000	-0.38075373	0.60484445
0.38000000	-0.38014821	0.60618271
0.38100000	-0.37954136	0.60751896
0.38200000	-0.37893317	0.60885319
0.38300000	-0.37832366	0.61018540
0.38400000	-0.37771281	0.61151557
0.38500000	-0.37710063	0.61284371
0.38600000	-0.37648712	0.61416981
0.38700000	-0.37587229	0.61549387
0.38800000	-0.37525613	0.61681588
0.38900000	-0.37463866	0.61813584
0.39000000	-0.37401986	0.61945373
0.39100000	-0.37339975	0.62076957
0.39200000	-0.37277832	0.62208333
0.39300000	-0.37215558	0.62339502
0.39400000	-0.37153153	0.62470463
0.39500000	-0.37090618	0.62601216
0.39600000	-0.37027951	0.62731761
0.39700000	-0.36965154	0.62862095
0.39800000	-0.36902227	0.62992221
0.39900000	-0.36839170	0.63122135
0.40000000	-0.36775983	0.63251839
0.40100000	-0.36712666	0.63381332
0.40200000	-0.36649220	0.63510613
0.40300000	-0.36585645	0.63639682
0.40400000	-0.36521941	0.63768539
0.40500000	-0.36458108	0.63897182
0.40600000	-0.36394147	0.64025611
0.40700000	-0.36330057	0.64153826
0.40800000	-0.36265839	0.64281827
0.40900000	-0.36201493	0.64409613
0.41000000	-0.36137020	0.64537183
0.41100000	-0.36072419	0.64664537
0.41200000	-0.36007691	0.64791674
0.41300000	-0.35942836	0.64918595
0.41400000	-0.35877854	0.65045298
0.41500000	-0.35812746	0.65171783
0.41600000	-0.35747511	0.65298049
0.41700000	-0.35682150	0.65424097
0.41800000	-0.35616663	0.65549925
0.41900000	-0.35551050	0.65675533
0.42000000	-0.35485312	0.65800921
0.42100000	-0.35419448	0.65926088
0.42200000	-0.35353459	0.66051034
0.42300000	-0.35287346	0.66175758
0.42400000	-0.35221108	0.66300260
0.42500000	-0.35154746	0.66424539
0.42600000	-0.35088259	0.66548595
0.42700000	-0.35021649	0.66672427
0.42800000	-0.34954914	0.66796036
0.42900000	-0.34888057	0.66919419
0.43000000	-0.34821076	0.67042577
0.43100000	-0.34753972	0.67165510
0.43200000	-0.34686745	0.67288217
0.43300000	-0.34619395	0.67410698
0.43400000	-0.34551923	0.67532951
0.43500000	-0.34484329	0.67654977
0.43600000	-0.34416614	0.67776775
0.43700000	-0.34348776	0.67898345
0.43800000	-0.34280817	0.68019686
0.43900000	-0.34212737	0.68140798
0.44000000	-0.34144536	0.68261679
0.44100000	-0.34076214	0.68382331
0.44200000	-0.34007771	0.68502752
0.44300000	-0.33939208	0.68622942
0.44400000	-0.33870525	0.68742900
0.44500000	-0.33801722	0.68862627
0.44600000	-0.33732800	0.68982120
0.44700000	-0.33663758	0.69101381
0.44800000	-0.33594597	0.69220409
0.44900000	-0.33525318	0.69339202
0.45000000	-0.33455919	0.69457761
0.45100000	-0.33386402	0.69576085
0.45200000	-0.33316767	0.69694174
0.45300000	-0.33247014	0.69812027
0.45400000	-0.33177143	0.69929644
0.45500000	-0.33107155	0.70047025
0.45600000	-0.33037049	0.70164168
0.45700000	-0.32966827	0.70281074
0.45800000	-0.32896487	0.70397742
0.45900000	-0.32826031	0.70514171
0.46000000	-0.32755459	0.70630361
0.46100000	-0.32684771	0.70746312
0.46200000	-0.32613967	0.70862024
0.46300000	-0.32543047	0.70977494
0.46400000	-0.32472012	0.71092725
0.46500000	-0.32400861	0.71207714
0.46600000	-0.32329596	0.71322461
0.46700000	-0.32258217	0.71436967
0.46800000	-0.32186723	0.71551230
0.46900000	-0.32115114	0.71665250
0.47000000	-0.32043392	0.71779026
0.47100000	-0.31971556	0.71892559
0.47200000	-0.31899607	0.72005847
0.47300000	-0.31827545	0.72118891
0.47400000	-0.31755369	0.72231690
0.47500000	-0.31683082	0.72344242
0.47600000	-0.31610681	0.72456549
0.47700000	-0.31538169	0.72568610
0.47800000	-0.31465544	0.72680423
0.47900000	-0.31392808	0.72791989
0.48000000	-0.31319960	0.72903307
0.48100000	-0.31247001	0.73014377
0.48200000	-0.31173932	0.73125199
0.48300000	-0.31100751	0.73235771
0.48400000	-0.31027460	0.73346093
0.48500000	-0.30954059	0.73456166
0.48600000	-0.30880548	0.73565988
0.48700000	-0.30806927	0.73675560
0.48800000	-0.30733197	0.73784880
0.48900000	-0.30659358	0.73893948
0.49000000	-0.30585409	0.74002764
0.49100000	-0.30511352	0.74111328
0.49200000	-0.30437187	0.74219638
0.49300000	-0.30362913	0.74327695
0.49400000	-0.30288531	0.74435498
0.49500000	-0.30214042	0.74543047
0.49600000	-0.30139445	0.74650341
0.49700000	-0.30064742	0.74757380
0.49800000	-0.29989931	0.74864164
0.49900000	-0.29915013	0.74970691
0.50000000	-0.29839990	0.75076962
0.50100000	-0.29764860	0.75182976
0.50200000	-0.29689624	0.75288733
0.50300000	-0.29614282	0.75394232
0.50400000	-0.29538835	0.75499473
0.50500000	-0.29463283	0.75604455
0.50600000	-0.29387627	0.75709178
0.50700000	-0.29311865	0.75813642
0.50800000	-0.29235999	0.75917847
0.50900000	-0.29160030	0.76021791
0.51000000	-0.29083956	0.76125474
0.51100000	-0.29007779	0.76228896
0.51200000	-0.28931498	0.76332057
0.51300000	-0.28855115	0.76434956
0.51400000	-0.28778629	0.76537593
0.51500000	-0.28702040	0.76639967
0.51600000	-0.28625349	0.76742078
0.51700000	-0.28548556	0.76843925
0.51800000	-0.28471661	0.76945508
0.51900000	-0.28394665	0.77046827
0.52000000	-0.28317567	0.77147882
0.52100000	-0.28240369	0.77248671
0.52200000	-0.28163070	0.77349194
0.52300000	-0.28085671	0.77449452
0.52400000	-0.28008172	0.77549443
0.52500000	-0.27930572	0.77649167
0.52600000	-0.27852873	0.77748625
0.52700000	-0.27775075	0.77847814
0.52800000	-0.27697178	0.77946736
0.52900000	-0.27619182	0.78045389
0.53000000	-0.27541087	0.78143774
0.53100000	-0.27462894	0.78241889
0.53200000	-0.27384604	0.78339735
0.53300000	-0.27306215	0.78437310
0.53400000	-0.27227729	0.78534616
0.53500000	-0.27149146	0.78631650
0.53600000	-0.27070466	0.78728413
0.53700000	-0.26991689	0.78824905
0.53800000	-0.26912816	0.78921125
0.53900000	-0.26833847	0.79017072
0.54000000	-0.26754782	0.79112747
0.54100000	-0.26675622	0.79208149
0.54200000	-0.26596366	0.79303277
0.54300000	-0.26517015	0.79398131
0.54400000	-0.26437570	0.79492711
0.54500000	-0.26358030	0.79587016
0.54600000	-0.26278396	0.79681046
0.54700000	-0.26198668	0.79774801
0.54800000	-0.26118847	0.79868280
0.54900000	-0.26038932	0.79961482
0.55000000	-0.25958924	0.80054408
0.55100000	-0.25878823	0.80147058
0.55200000	-0.25798630	0.80239429
0.55300000	-0.25718344	0.80331523
0.55400000	-0.25637967	0.80423339
0.55500000	-0.25557498	0.80514876
0.55600000	-0.25476937	0.80606135
0.55700000	-0.25396286	0.80697114
0.55800000	-0.25315543	0.80787813
0.55900000	-0.25234710	0.80878233
0.56000000	-0.25153787	0.80968372
0.56100000	-0.25072774	0.81058231
0.56200000	-0.24991670	0.81147808
0.56300000	-0.24910478	0.81237104
0.56400000	-0.24829196	0.81326118
0.56500000	-0.24747826	0.81414850
0.56600000	-0.24666367	0.81503299
0.56700000	-0.24584819	0.81591465
0.56800000	-0.24503184	0.81679348
0.56900000	-0.24421461	0.81766948
0.57000000	-0.24339650	0.81854263
0.57100000	-0.24257753	0.81941294
0.57200000	-0.24175768	0.82028040
0.57300000	-0.24093697	0.82114501
0.57400000	-0.24011539	0.82200676
0.57500000	-0.23929295	0.82286566
0.57600000	-0.23846966	0.82372169
0.57700000	-0.23764551	0.82457486
0.57800000	-0.23682051	0.82542516
0.57900000	-0.23599466	0.82627259
0.58000000	-0.23516797	0.82711714
0.58100000	-0.23434043	0.82795881
0.58200000	-0.23351205	0.82879760
0.58300000	-0.23268284	0.82963350
0.58400000	-0.23185279	0.83046651
0.58500000	-0.23102190	0.83129663
