Time(s) 	 Phi(rad) 	 Angular velocity (rad/s)
0.00000000	-0.50000000	0.10000000
0.00100000	-0.49989912	0.10175419
0.00200000	-0.49979649	0.10350808
0.00300000	-0.49969211	0.10526165
0.00400000	-0.49958597	0.10701490
0.00500000	-0.49947808	0.10876782
0.00600000	-0.49936843	0.11052042
0.00700000	-0.49925704	0.11227268
0.00800000	-0.49914389	0.11402460
0.00900000	-0.49902899	0.11577617
0.01000000	-0.49891234	0.11752739
0.01100000	-0.49879393	0.11927825
0.01200000	-0.49867378	0.12102875
0.01300000	-0.49855188	0.12277888
0.01400000	-0.49842822	0.12452864
0.01500000	-0.49830282	0.12627802
0.01600000	-0.49817567	0.12802701
0.01700000	-0.49804676	0.12977562
0.01800000	-0.49791612	0.13152383
0.01900000	-0.49778372	0.13327164
0.02000000	-0.49764957	0.13501904
0.02100000	-0.49751368	0.13676604
0.02200000	-0.49737604	0.13851262
0.02300000	-0.49723665	0.14025878
0.02400000	-0.49709552	0.14200451
0.02500000	-0.49695265	0.14374980
0.02600000	-0.49680802	0.14549467
0.02700000	-0.49666166	0.14723908
0.02800000	-0.49651355	0.14898305
0.02900000	-0.49636369	0.15072657
0.03000000	-0.49621209	0.15246963
0.03100000	-0.49605875	0.15421222
0.03200000	-0.49590367	0.15595435
0.03300000	-0.49574684	0.15769599
0.03400000	-0.49558828	0.15943716
0.03500000	-0.49542797	0.16117785
0.03600000	-0.49526592	0.16291804
0.03700000	-0.49510213	0.16465773
0.03800000	-0.49493661	0.16639693
0.03900000	-0.49476934	0.16813561
0.04000000	-0.49460033	0.16987379
0.04100000	-0.49442959	0.17161145
0.04200000	-0.49425711	0.17334858
0.04300000	-0.49408290	0.17508519
0.04400000	-0.49390694	0.17682126
0.04500000	-0.49372925	0.17855679
0.04600000	-0.49354983	0.18029178
0.04700000	-0.49336867	0.18202622
0.04800000	-0.49318578	0.18376010
0.04900000	-0.49300115	0.18549342
0.05000000	-0.49281479	0.18722618
0.05100000	-0.49262670	0.18895837
0.05200000	-0.49243687	0.19068998
0.05300000	-0.49224532	0.19242101
0.05400000	-0.49205203	0.19415145
0.05500000	-0.49185702	0.19588129
0.05600000	-0.49166027	0.19761054
0.05700000	-0.49146179	0.19933919
0.05800000	-0.49126159	0.20106723
0.05900000	-0.49105966	0.20279465
0.06000000	-0.49085600	0.20452146
0.06100000	-0.49065062	0.20624764
0.06200000	-0.49044351	0.20797319
0.06300000	-0.49023467	0.20969811
0.06400000	-0.49002411	0.21142238
0.06500000	-0.48981183	0.21314601
0.06600000	-0.48959782	0.21486899
0.06700000	-0.48938209	0.21659131
0.06800000	-0.48916464	0.21831297
0.06900000	-0.48894546	0.22003396
0.07000000	-0.48872457	0.22175428
0.07100000	-0.48850196	0.22347392
0.07200000	-0.48827762	0.22519288
0.07300000	-0.48805157	0.22691114
0.07400000	-0.48782380	0.22862872
0.07500000	-0.48759431	0.23034559
0.07600000	-0.48736311	0.23206176
0.07700000	-0.48713019	0.23377723
0.07800000	-0.48689556	0.23549197
0.07900000	-0.48665921	0.23720599
0.08000000	-0.48642114	0.23891929
0.08100000	-0.48618137	0.24063186
0.08200000	-0.48593988	0.24234369
0.08300000	-0.48569668	0.24405478
0.08400000	-0.48545177	0.24576512
0.08500000	-0.48520515	0.24747470
0.08600000	-0.48495682	0.24918353
0.08700000	-0.48470679	0.25089160
0.08800000	-0.48445504	0.25259889
0.08900000	-0.48420159	0.25430542
0.09000000	-0.48394643	0.25601116
0.09100000	-0.48368957	0.25771612
0.09200000	-0.48343100	0.25942028
0.09300000	-0.48317073	0.26112366
0.09400000	-0.48290875	0.26282623
0.09500000	-0.48264507	0.26452799
0.09600000	-0.48237970	0.26622895
0.09700000	-0.48211262	0.26792908
0.09800000	-0.48184384	0.26962840
0.09900000	-0.48157336	0.27132688
0.10000000	-0.48130118	0.27302454
0.10100000	-0.48102731	0.27472135
0.10200000	-0.48075174	0.27641732
0.10300000	-0.48047448	0.27811245
0.10400000	-0.48019552	0.27980672
0.10500000	-0.47991486	0.28150012
0.10600000	-0.47963252	0.28319267
0.10700000	-0.47934848	0.28488434
0.10800000	-0.47906275	0.28657514
0.10900000	-0.47877533	0.28826506
0.11000000	-0.47848622	0.28995409
0.11100000	-0.47819542	0.29164223
0.11200000	-0.47790294	0.29332947
0.11300000	-0.47760876	0.29501581
0.11400000	-0.47731290	0.29670124
0.11500000	-0.47701536	0.29838576
0.11600000	-0.47671613	0.30006936
0.11700000	-0.47641522	0.30175204
0.11800000	-0.47611263	0.30343379
0.11900000	-0.47580836	0.30511460
0.12000000	-0.47550240	0.30679448
0.12100000	-0.47519477	0.30847341
0.12200000	-0.47488545	0.31015139
0.12300000	-0.47457446	0.31182841
0.12400000	-0.47426180	0.31350447
0.12500000	-0.47394746	0.31517957
0.12600000	-0.47363144	0.31685369
0.12700000	-0.47331375	0.31852684
0.12800000	-0.47299439	0.32019901
0.12900000	-0.47267335	0.32187018
0.13000000	-0.47235065	0.32354037
0.13100000	-0.47202627	0.32520956
0.13200000	-0.47170023	0.32687774
0.13300000	-0.47137252	0.32854491
0.13400000	-0.47104314	0.33021107
0.13500000	-0.47071209	0.33187621
0.13600000	-0.47037939	0.33354033
0.13700000	-0.47004501	0.33520342
0.13800000	-0.46970898	0.33686547
0.13900000	-0.46937128	0.33852647
0.14000000	-0.46903193	0.34018644
0.14100000	-0.46869091	0.34184535
0.14200000	-0.46834824	0.34350320
0.14300000	-0.46800391	0.34516000
0.14400000	-0.46765792	0.34681572
0.14500000	-0.46731028	0.34847037
0.14600000	-0.46696098	0.35012395
0.14700000	-0.46661003	0.35177644
0.14800000	-0.46625743	0.35342784
0.14900000	-0.46590317	0.35507815
0.15000000	-0.46554727	0.35672736
0.15100000	-0.46518972	0.35837546
0.15200000	-0.46483052	0.36002246
0.15300000	-0.46446967	0.36166833
0.15400000	-0.46410718	0.36331309
0.15500000	-0.46374305	0.36495672
0.15600000	-0.46337727	0.36659923
0.15700000	-0.46300985	0.36824059
0.15800000	-0.46264079	0.36988081
0.15900000	-0.46227009	0.37151989
0.16000000	-0.46189775	0.37315781
0.16100000	-0.46152377	0.37479458
0.16200000	-0.46114816	0.37643018
0.16300000	-0.46077091	0.37806461
0.16400000	-0.46039203	0.37969787
0.16500000	-0.46001152	0.38132995
0.16600000	-0.45962937	0.38296085
0.16700000	-0.45924560	0.38459056
0.16800000	-0.45886019	0.38621907
0.16900000	-0.45847316	0.38784638
0.17000000	-0.45808450	0.38947249
0.17100000	-0.45769422	0.39109738
0.17200000	-0.45730231	0.39272106
0.17300000	-0.45690878	0.39434352
0.17400000	-0.45651362	0.39596475
0.17500000	-0.45611685	0.39758475
0.17600000	-0.45571845	0.39920351
0.17700000	-0.45531844	0.40082103
0.17800000	-0.45491681	0.40243730
0.17900000	-0.45451357	0.40405232
0.18000000	-0.45410871	0.40566608
0.18100000	-0.45370223	0.40727858
0.18200000	-0.45329415	0.40888980
0.18300000	-0.45288446	0.41049975
0.18400000	-0.45247315	0.41210843
0.18500000	-0.45206024	0.41371582
0.18600000	-0.45164572	0.41532191
0.18700000	-0.45122960	0.41692672
0.18800000	-0.45081187	0.41853022
0.18900000	-0.45039254	0.42013241
0.19000000	-0.44997160	0.42173330
0.19100000	-0.44954907	0.42333286
0.19200000	-0.44912494	0.42493111
0.19300000	-0.44869921	0.42652803
0.19400000	-0.44827188	0.42812361
0.19500000	-0.44784296	0.42971786
0.19600000	-0.44741245	0.43131076
0.19700000	-0.44698034	0.43290232
0.19800000	-0.44654664	0.43449252
0.19900000	-0.44611136	0.43608137
0.20000000	-0.44567448	0.43766885
0.20100000	-0.44523602	0.43925496
0.20200000	-0.44479597	0.44083969
0.20300000	-0.44435434	0.44242305
0.20400000	-0.44391113	0.44400502
0.20500000	-0.44346633	0.44558560
0.20600000	-0.44301996	0.44716479
0.20700000	-0.44257200	0.44874257
0.20800000	-0.44212247	0.45031895
0.20900000	-0.44167137	0.45189391
0.21000000	-0.44121869	0.45346746
0.21100000	-0.44076443	0.45503959
0.21200000	-0.44030861	0.45661029
0.21300000	-0.43985121	0.45817956
0.21400000	-0.43939225	0.45974739
0.21500000	-0.43893172	0.46131377
0.21600000	-0.43846962	0.46287871
0.21700000	-0.43800596	0.46444220
0.21800000	-0.43754074	0.46600422
0.21900000	-0.43707395	0.46756478
0.22000000	-0.43660561	0.46912388
0.22100000	-0.43613571	0.47068150
0.22200000	-0.43566425	0.47223763
0.22300000	-0.43519123	0.47379229
0.22400000	-0.43471666	0.47534545
0.22500000	-0.43424054	0.47689712
0.22600000	-0.43376287	0.47844729
0.22700000	-0.43328365	0.47999595
0.22800000	-0.43280288	0.48154310
0.22900000	-0.43232056	0.48308873
0.23000000	-0.43183670	0.48463284
0.23100000	-0.43135130	0.48617543
0.23200000	-0.43086435	0.48771648
0.23300000	-0.43037587	0.48925600
0.23400000	-0.42988584	0.49079397
0.23500000	-0.42939428	0.49233040
0.23600000	-0.42890118	0.49386527
0.23700000	-0.42840655	0.49539858
0.23800000	-0.42791038	0.49693034
0.23900000	-0.42741269	0.49846052
0.24000000	-0.42691346	0.49998913
0.24100000	-0.42641271	0.50151616
0.24200000	-0.42591043	0.50304160
0.24300000	-0.42540663	0.50456546
0.24400000	-0.42490130	0.50608772
0.24500000	-0.42439445	0.50760838
0.24600000	-0.42388609	0.50912744
0.24700000	-0.42337620	0.51064489
0.24800000	-0.42286480	0.51216072
0.24900000	-0.42235188	0.51367493
0.25000000	-0.42183745	0.51518751
0.25100000	-0.42132151	0.51669847
0.25200000	-0.42080405	0.51820779
0.25300000	-0.42028509	0.51971546
0.25400000	-0.41976462	0.52122149
0.25500000	-0.41924265	0.52272587
0.25600000	-0.41871917	0.52422859
0.25700000	-0.41819419	0.52572965
0.25800000	-0.41766771	0.52722905
0.25900000	-0.41713973	0.52872677
0.26000000	-0.41661026	0.53022281
0.26100000	-0.41607929	0.53171717
0.26200000	-0.41554683	0.53320984
0.26300000	-0.41501287	0.53470082
0.26400000	-0.41447743	0.53619010
0.26500000	-0.41394049	0.53767768
0.26600000	-0.41340207	0.53916354
0.26700000	-0.41286217	0.54064770
0.26800000	-0.41232078	0.54213014
0.26900000	-0.41177791	0.54361085
0.27000000	-0.41123356	0.54508983
0.27100000	-0.41068773	0.54656708
0.27200000	-0.41014042	0.54804259
0.27300000	-0.40959164	0.54951635
0.27400000	-0.40904139	0.55098837
0.27500000	-0.40848967	0.55245863
0.27600000	-0.40793647	0.55392713
0.27700000	-0.40738181	0.55539386
0.27800000	-0.40682569	0.55685883
0.27900000	-0.40626810	0.55832202
0.28000000	-0.40570904	0.55978343
0.28100000	-0.40514853	0.56124305
0.28200000	-0.40458656	0.56270089
0.28300000	-0.40402313	0.56415692
0.28400000	-0.40345825	0.56561116
0.28500000	-0.40289191	0.56706359
0.28600000	-0.40232412	0.56851421
0.28700000	-0.40175488	0.56996301
0.28800000	-0.40118419	0.57140999
0.28900000	-0.40061206	0.57285515
0.29000000	-0.40003849	0.57429847
0.29100000	-0.39946347	0.57573996
0.29200000	-0.39888701	0.57717961
0.29300000	-0.39830911	0.57861741
0.29400000	-0.39772977	0.58005335
0.29500000	-0.39714900	0.58148744
0.29600000	-0.39656680	0.58291967
0.29700000	-0.39598316	0.58435003
0.29800000	-0.39539810	0.58577852
0.29900000	-0.39481161	0.58720513
0.30000000	-0.39422369	0.58862986
0.30100000	-0.39363435	0.59005271
0.30200000	-0.39304359	0.59147366
0.30300000	-0.39245140	0.59289271
0.30400000	-0.39185780	0.59430986
0.30500000	-0.39126278	0.59572510
0.30600000	-0.39066635	0.59713843
0.30700000	-0.39006851	0.59854984
0.30800000	-0.38946925	0.59995933
0.30900000	-0.38886859	0.60136689
0.31000000	-0.38826652	0.60277252
0.31100000	-0.38766305	0.60417621
0.31200000	-0.38705817	0.60557796
0.31300000	-0.38645189	0.60697776
0.31400000	-0.38584421	0.60837561
0.31500000	-0.38523514	0.60977150
0.31600000	-0.38462467	0.61116543
0.31700000	-0.38401281	0.61255739
0.31800000	-0.38339956	0.61394738
0.31900000	-0.38278492	0.61533538
0.32000000	-0.38216889	0.61672141
0.32100000	-0.38155148	0.61810545
0.32200000	-0.38093268	0.61948749
0.32300000	-0.38031250	0.62086754
0.32400000	-0.37969094	0.62224559
0.32500000	-0.37906801	0.62362162
0.32600000	-0.37844370	0.62499565
0.32700000	-0.37781802	0.62636766
0.32800000	-0.37719097	0.62773764
0.32900000	-0.37656255	0.62910560
0.33000000	-0.37593276	0.63047152
0.33100000	-0.37530160	0.63183541
0.33200000	-0.37466909	0.63319725
0.33300000	-0.37403521	0.63455705
0.33400000	-0.37339997	0.63591479
0.33500000	-0.37276338	0.63727048
0.33600000	-0.37212544	0.63862410
0.33700000	-0.37148614	0.63997566
0.33800000	-0.37084548	0.64132514
0.33900000	-0.37020349	0.64267255
0.34000000	-0.36956014	0.64401788
0.34100000	-0.36891545	0.64536111
0.34200000	-0.36826942	0.64670226
0.34300000	-0.36762205	0.64804131
0.34400000	-0.36697334	0.64937826
0.34500000	-0.36632329	0.65071310
0.34600000	-0.36567191	0.65204583
0.34700000	-0.36501920	0.65337645
0.34800000	-0.36436516	0.65470494
0.34900000	-0.36370979	0.65603131
0.35000000	-0.36305310	0.65735555
0.35100000	-0.36239508	0.65867765
0.35200000	-0.36173575	0.65999761
0.35300000	-0.36107509	0.66131542
0.35400000	-0.36041312	0.66263108
0.35500000	-0.35974983	0.66394459
0.35600000	-0.35908523	0.66525594
0.35700000	-0.35841932	0.66656512
0.35800000	-0.35775210	0.66787214
0.35900000	-0.35708357	0.66917698
0.36000000	-0.35641375	0.67047964
0.36100000	-0.35574262	0.67178011
0.36200000	-0.35507019	0.67307840
0.36300000	-0.35439646	0.67437449
0.36400000	-0.35372144	0.67566838
0.36500000	-0.35304512	0.67696007
0.36600000	-0.35236752	0.67824956
0.36700000	-0.35168863	0.67953682
0.36800000	-0.35100845	0.68082187
0.36900000	-0.35032698	0.68210470
0.37000000	-0.34964424	0.68338530
0.37100000	-0.34896021	0.68466367
0.37200000	-0.34827491	0.68593980
0.37300000	-0.34758834	0.68721369
0.37400000	-0.34690049	0.68848533
0.37500000	-0.34621137	0.68975472
0.37600000	-0.34552098	0.69102186
0.37700000	-0.34482932	0.69228673
0.37800000	-0.34413641	0.69354934
0.37900000	-0.34344223	0.69480968
0.38000000	-0.34274679	0.69606774
0.38100000	-0.34205009	0.69732352
0.38200000	-0.34135214	0.69857702
0.38300000	-0.34065294	0.69982823
0.38400000	-0.33995249	0.70107715
0.38500000	-0.33925079	0.70232376
0.38600000	-0.33854784	0.70356807
0.38700000	-0.33784365	0.70481008
0.38800000	-0.33713822	0.70604977
0.38900000	-0.33643155	0.70728715
0.39000000	-0.33572365	0.70852220
0.39100000	-0.33501451	0.70975492
0.39200000	-0.33430414	0.71098532
0.39300000	-0.33359254	0.71221338
0.39400000	-0.33287971	0.71343909
0.39500000	-0.33216566	0.71466247
0.39600000	-0.33145039	0.71588349
0.39700000	-0.33073390	0.71710215
0.39800000	-0.33001619	0.71831846
0.39900000	-0.32929726	0.71953241
0.40000000	-0.32857712	0.72074398
0.40100000	-0.32785577	0.72195318
0.40200000	-0.32713322	0.72316001
0.40300000	-0.32640946	0.72436445
0.40400000	-0.32568449	0.72556650
0.40500000	-0.32495832	0.72676616
0.40600000	-0.32423096	0.72796343
0.40700000	-0.32350240	0.72915829
0.40800000	-0.32277264	0.73035075
0.40900000	-0.32204170	0.73154080
0.41000000	-0.32130956	0.73272844
0.41100000	-0.32057624	0.73391366
0.41200000	-0.31984174	0.73509645
0.41300000	-0.31910605	0.73627681
0.41400000	-0.31836918	0.73745475
0.41500000	-0.31763114	0.73863024
0.41600000	-0.31689193	0.73980329
0.41700000	-0.31615154	0.74097390
0.41800000	-0.31540998	0.74214206
0.41900000	-0.31466725	0.74330776
0.42000000	-0.31392336	0.74447100
0.42100000	-0.31317831	0.74563177
0.42200000	-0.31243210	0.74679008
0.42300000	-0.31168473	0.74794591
0.42400000	-0.31093621	0.74909927
0.42500000	-0.31018654	0.75025014
0.42600000	-0.30943571	0.75139853
0.42700000	-0.30868374	0.75254443
0.42800000	-0.30793062	0.75368783
0.42900000	-0.30717637	0.75482873
0.43000000	-0.30642097	0.75596713
0.43100000	-0.30566443	0.75710301
0.43200000	-0.30490676	0.75823639
0.43300000	-0.30414796	0.75936724
0.43400000	-0.30338803	0.76049558
0.43500000	-0.30262697	0.76162138
0.43600000	-0.30186479	0.76274466
0.43700000	-0.30110148	0.76386540
0.43800000	-0.30033706	0.76498360
0.43900000	-0.29957152	0.76609926
0.44000000	-0.29880486	0.76721237
0.44100000	-0.29803709	0.76832293
0.44200000	-0.29726822	0.76943093
0.44300000	-0.29649823	0.77053636
0.44400000	-0.29572715	0.77163923
0.44500000	-0.29495496	0.77273954
0.44600000	-0.29418167	0.77383726
0.44700000	-0.29340728	0.77493241
0.44800000	-0.29263180	0.77602498
0.44900000	-0.29185523	0.77711496
0.45000000	-0.29107758	0.77820234
0.45100000	-0.29029883	0.77928713
0.45200000	-0.28951900	0.78036932
0.45300000	-0.28873809	0.78144891
0.45400000	-0.28795611	0.78252588
0.45500000	-0.28717304	0.78360025
0.45600000	-0.28638891	0.78467199
0.45700000	-0.28560370	0.78574112
0.45800000	-0.28481743	0.78680762
0.45900000	-0.28403009	0.78787149
0.46000000	-0.28324168	0.78893272
0.46100000	-0.28245222	0.78999132
0.46200000	-0.28166170	0.79104727
0.46300000	-0.28087013	0.79210058
0.46400000	-0.28007750	0.79315124
0.46500000	-0.27928383	0.79419924
0.46600000	-0.27848911	0.79524458
0.46700000	-0.27769334	0.79628726
0.46800000	-0.27689653	0.79732727
0.46900000	-0.27609869	0.79836461
0.47000000	-0.27529981	0.79939927
0.47100000	-0.27449989	0.80043125
0.47200000	-0.27369894	0.80146055
0.47300000	-0.27289697	0.80248716
0.47400000	-0.27209397	0.80351108
0.47500000	-0.27128995	0.80453230
0.47600000	-0.27048491	0.80555082
0.47700000	-0.26967885	0.80656664
0.47800000	-0.26887178	0.80757975
0.47900000	-0.26806369	0.80859014
0.48000000	-0.26725460	0.80959782
0.48100000	-0.26644450	0.81060278
0.48200000	-0.26563339	0.81160501
0.48300000	-0.26482129	0.81260452
0.48400000	-0.26400819	0.81360129
0.48500000	-0.26319409	0.81459532
0.48600000	-0.26237900	0.81558661
0.48700000	-0.26156292	0.81657516
0.48800000	-0.26074585	0.81756096
0.48900000	-0.25992779	0.81854400
0.49000000	-0.25910876	0.81952429
0.49100000	-0.25828875	0.82050182
0.49200000	-0.25746776	0.82147658
0.49300000	-0.25664580	0.82244858
0.49400000	-0.25582286	0.82341780
0.49500000	-0.25499896	0.82438425
0.49600000	-0.25417410	0.82534791
0.49700000	-0.25334827	0.82630879
0.49800000	-0.25252148	0.82726688
0.49900000	-0.25169373	0.82822218
0.50000000	-0.25086504	0.82917468
0.50100000	-0.25003539	0.83012439
0.50200000	-0.24920479	0.83107129
0.50300000	-0.24837325	0.83201538
0.50400000	-0.24754076	0.83295666
0.50500000	-0.24670733	0.83389513
0.50600000	-0.24587297	0.83483077
0.50700000	-0.24503767	0.83576359
0.50800000	-0.24420144	0.83669359
0.50900000	-0.24336429	0.83762076
0.51000000	-0.24252620	0.83854509
0.51100000	-0.24168720	0.83946658
0.51200000	-0.24084727	0.84038523
0.51300000	-0.24000643	0.84130104
0.51400000	-0.23916467	0.84221399
0.51500000	-0.23832200	0.84312410
0.51600000	-0.23747843	0.84403134
0.51700000	-0.23663394	0.84493573
0.51800000	-0.23578856	0.84583725
0.51900000	-0.23494227	0.84673590
0.52000000	-0.23409509	0.84763168
0.52100000	-0.23324701	0.84852459
0.52200000	-0.23239804	0.84941461
0.52300000	-0.23154818	0.85030176
0.52400000	-0.23069744	0.85118602
0.52500000	-0.22984581	0.85206738
0.52600000	-0.22899330	0.85294586
0.52700000	-0.22813992	0.85382143
0.52800000	-0.22728566	0.85469411
0.52900000	-0.22643053	0.85556388
0.53000000	-0.22557453	0.85643074
0.53100000	-0.22471767	0.85729469
0.53200000	-0.22385995	0.85815573
0.53300000	-0.22300136	0.85901385
0.53400000	-0.22214192	0.85986904
0.53500000	-0.22128163	0.86072131
0.53600000	-0.22042048	0.86157065
0.53700000	-0.21955849	0.86241706
0.53800000	-0.21869565	0.86326053
0.53900000	-0.21783197	0.86410106
0.54000000	-0.21696745	0.86493864
0.54100000	-0.21610209	0.86577328
0.54200000	-0.21523590	0.86660497
0.54300000	-0.21436888	0.86743371
0.54400000	-0.21350103	0.86825949
0.54500000	-0.21263236	0.86908230
0.54600000	-0.21176287	0.86990216
0.54700000	-0.21089256	0.87071904
0.54800000	-0.21002144	0.87153296
0.54900000	-0.20914950	0.87234390
0.55000000	-0.20827675	0.87315186
0.55100000	-0.20740319	0.87395684
0.55200000	-0.20652884	0.87475884
0.55300000	-0.20565368	0.87555785
0.55400000	-0.20477772	0.87635386
0.55500000	-0.20390097	0.87714689
0.55600000	-0.20302343	0.87793691
0.55700000	-0.20214510	0.87872394
0.55800000	-0.20126598	0.87950796
0.55900000	-0.20038609	0.88028897
0.56000000	-0.19950541	0.88106697
0.56100000	-0.19862395	0.88184196
0.56200000	-0.19774172	0.88261392
0.56300000	-0.19685873	0.88338287
0.56400000	-0.19597496	0.88414880
0.56500000	-0.19509043	0.88491169
0.56600000	-0.19420514	0.88567156
0.56700000	-0.19331909	0.88642839
0.56800000	-0.19243228	0.88718219
0.56900000	-0.19154473	0.88793294
0.57000000	-0.19065642	0.88868066
0.57100000	-0.18976737	0.88942532
0.57200000	-0.18887757	0.89016694
0.57300000	-0.18798703	0.89090551
0.57400000	-0.18709576	0.89164101
0.57500000	-0.18620375	0.89237346
0.57600000	-0.18531102	0.89310285
0.57700000	-0.18441755	0.89382917
0.57800000	-0.18352336	0.89455243
0.57900000	-0.18262845	0.89527261
0.58000000	-0.18173281	0.89598972
0.58100000	-0.18083647	0.89670375
0.58200000	-0.17993941	0.89741471
0.58300000	-0.17904164	0.89812258
0.58400000	-0.17814317	0.89882736
0.58500000	-0.17724399	0.89952905
