Time(s)	Phi(rad)	Angular velocity (rad/s)
0.00000000	0.01000000	0.00000000
0.00100000	0.00999998	-0.00003509
0.00200000	0.00999993	-0.00007018
0.00300000	0.00999984	-0.00010528
0.00400000	0.00999972	-0.00014037
0.00500000	0.00999956	-0.00017546
0.00600000	0.00999937	-0.00021055
0.00700000	0.00999914	-0.00024564
0.00800000	0.00999888	-0.00028073
0.00900000	0.00999858	-0.00031582
0.01000000	0.00999825	-0.00035090
0.01100000	0.00999788	-0.00038599
0.01200000	0.00999747	-0.00042107
0.01300000	0.00999703	-0.00045615
0.01400000	0.00999656	-0.00049124
0.01500000	0.00999605	-0.00052631
0.01600000	0.00999551	-0.00056139
0.01700000	0.00999493	-0.00059647
0.01800000	0.00999432	-0.00063154
0.01900000	0.00999367	-0.00066661
0.02000000	0.00999298	-0.00070168
0.02100000	0.00999226	-0.00073675
0.02200000	0.00999151	-0.00077181
0.02300000	0.00999072	-0.00080687
0.02400000	0.00998990	-0.00084193
0.02500000	0.00998904	-0.00087699
0.02600000	0.00998814	-0.00091204
0.02700000	0.00998721	-0.00094709
0.02800000	0.00998625	-0.00098213
0.02900000	0.00998525	-0.00101718
0.03000000	0.00998421	-0.00105221
0.03100000	0.00998314	-0.00108725
0.03200000	0.00998204	-0.00112228
0.03300000	0.00998090	-0.00115731
0.03400000	0.00997972	-0.00119233
0.03500000	0.00997851	-0.00122735
0.03600000	0.00997727	-0.00126236
0.03700000	0.00997599	-0.00129737
0.03800000	0.00997467	-0.00133238
0.03900000	0.00997332	-0.00136738
0.04000000	0.00997194	-0.00140238
0.04100000	0.00997052	-0.00143737
0.04200000	0.00996906	-0.00147236
0.04300000	0.00996757	-0.00150734
0.04400000	0.00996605	-0.00154231
0.04500000	0.00996449	-0.00157728
0.04600000	0.00996290	-0.00161225
0.04700000	0.00996127	-0.00164721
0.04800000	0.00995960	-0.00168216
0.04900000	0.00995790	-0.00171711
0.05000000	0.00995617	-0.00175205
0.05100000	0.00995440	-0.00178698
0.05200000	0.00995259	-0.00182191
0.05300000	0.00995075	-0.00185684
0.05400000	0.00994888	-0.00189175
0.05500000	0.00994697	-0.00192666
0.05600000	0.00994503	-0.00196157
0.05700000	0.00994305	-0.00199646
0.05800000	0.00994103	-0.00203135
0.05900000	0.00993898	-0.00206623
0.06000000	0.00993690	-0.00210111
0.06100000	0.00993478	-0.00213597
0.06200000	0.00993263	-0.00217083
0.06300000	0.00993044	-0.00220568
0.06400000	0.00992822	-0.00224053
0.06500000	0.00992596	-0.00227537
0.06600000	0.00992367	-0.00231019
0.06700000	0.00992134	-0.00234501
0.06800000	0.00991898	-0.00237983
0.06900000	0.00991658	-0.00241463
0.07000000	0.00991415	-0.00244943
0.07100000	0.00991168	-0.00248421
0.07200000	0.00990918	-0.00251899
0.07300000	0.00990664	-0.00255376
0.07400000	0.00990407	-0.00258852
0.07500000	0.00990147	-0.00262327
0.07600000	0.00989882	-0.00265801
0.07700000	0.00989615	-0.00269275
0.07800000	0.00989344	-0.00272747
0.07900000	0.00989069	-0.00276218
0.08000000	0.00988791	-0.00279689
0.08100000	0.00988510	-0.00283158
0.08200000	0.00988225	-0.00286626
0.08300000	0.00987937	-0.00290094
0.08400000	0.00987645	-0.00293560
0.08500000	0.00987350	-0.00297026
0.08600000	0.00987051	-0.00300490
0.08700000	0.00986749	-0.00303953
0.08800000	0.00986443	-0.00307415
0.08900000	0.00986134	-0.00310876
0.09000000	0.00985821	-0.00314336
0.09100000	0.00985505	-0.00317795
0.09200000	0.00985186	-0.00321253
0.09300000	0.00984863	-0.00324710
0.09400000	0.00984536	-0.00328165
0.09500000	0.00984206	-0.00331620
0.09600000	0.00983873	-0.00335073
0.09700000	0.00983536	-0.00338525
0.09800000	0.00983196	-0.00341976
0.09900000	0.00982852	-0.00345426
0.10000000	0.00982505	-0.00348874
0.10100000	0.00982155	-0.00352321
0.10200000	0.00981800	-0.00355767
0.10300000	0.00981443	-0.00359212
0.10400000	0.00981082	-0.00362655
0.10500000	0.00980718	-0.00366098
0.10600000	0.00980350	-0.00369539
0.10700000	0.00979979	-0.00372978
0.10800000	0.00979604	-0.00376416
0.10900000	0.00979226	-0.00379853
0.11000000	0.00978844	-0.00383289
0.11100000	0.00978459	-0.00386723
0.11200000	0.00978071	-0.00390156
0.11300000	0.00977679	-0.00393588
0.11400000	0.00977284	-0.00397018
0.11500000	0.00976885	-0.00400447
0.11600000	0.00976483	-0.00403874
0.11700000	0.00976077	-0.00407300
0.11800000	0.00975668	-0.00410725
0.11900000	0.00975256	-0.00414148
0.12000000	0.00974840	-0.00417570
0.12100000	0.00974421	-0.00420990
0.12200000	0.00973998	-0.00424409
0.12300000	0.00973572	-0.00427826
0.12400000	0.00973142	-0.00431242
0.12500000	0.00972709	-0.00434656
0.12600000	0.00972273	-0.00438069
0.12700000	0.00971833	-0.00441480
0.12800000	0.00971390	-0.00444889
0.12900000	0.00970943	-0.00448297
0.13000000	0.00970493	-0.00451704
0.13100000	0.00970040	-0.00455109
0.13200000	0.00969583	-0.00458512
0.13300000	0.00969123	-0.00461914
0.13400000	0.00968659	-0.00465314
0.13500000	0.00968192	-0.00468712
0.13600000	0.00967722	-0.00472109
0.13700000	0.00967248	-0.00475504
0.13800000	0.00966771	-0.00478898
0.13900000	0.00966290	-0.00482289
0.14000000	0.00965806	-0.00485679
0.14100000	0.00965319	-0.00489068
0.14200000	0.00964828	-0.00492454
0.14300000	0.00964334	-0.00495839
0.14400000	0.00963836	-0.00499223
0.14500000	0.00963336	-0.00502604
0.14600000	0.00962831	-0.00505984
0.14700000	0.00962324	-0.00509362
0.14800000	0.00961812	-0.00512738
0.14900000	0.00961298	-0.00516112
0.15000000	0.00960780	-0.00519485
0.15100000	0.00960259	-0.00522855
0.15200000	0.00959735	-0.00526224
0.15300000	0.00959207	-0.00529591
0.15400000	0.00958675	-0.00532956
0.15500000	0.00958141	-0.00536320
0.15600000	0.00957603	-0.00539681
0.15700000	0.00957061	-0.00543040
0.15800000	0.00956517	-0.00546398
0.15900000	0.00955969	-0.00549754
0.16000000	0.00955417	-0.00553108
0.16100000	0.00954862	-0.00556459
0.16200000	0.00954304	-0.00559809
0.16300000	0.00953743	-0.00563157
0.16400000	0.00953178	-0.00566503
0.16500000	0.00952610	-0.00569847
0.16600000	0.00952038	-0.00573189
0.16700000	0.00951463	-0.00576529
0.16800000	0.00950885	-0.00579867
0.16900000	0.00950304	-0.00583203
0.17000000	0.00949719	-0.00586536
0.17100000	0.00949131	-0.00589868
0.17200000	0.00948539	-0.00593198
0.17300000	0.00947944	-0.00596525
0.17400000	0.00947346	-0.00599851
0.17500000	0.00946744	-0.00603174
0.17600000	0.00946140	-0.00606496
0.17700000	0.00945531	-0.00609815
0.17800000	0.00944920	-0.00613132
0.17900000	0.00944305	-0.00616447
0.18000000	0.00943687	-0.00619759
0.18100000	0.00943066	-0.00623070
0.18200000	0.00942441	-0.00626378
0.18300000	0.00941813	-0.00629684
0.18400000	0.00941182	-0.00632988
0.18500000	0.00940547	-0.00636290
0.18600000	0.00939909	-0.00639589
0.18700000	0.00939268	-0.00642887
0.18800000	0.00938623	-0.00646182
0.18900000	0.00937975	-0.00649474
0.19000000	0.00937324	-0.00652765
0.19100000	0.00936670	-0.00656053
0.19200000	0.00936012	-0.00659339
0.19300000	0.00935351	-0.00662622
0.19400000	0.00934687	-0.00665904
0.19500000	0.00934019	-0.00669182
0.19600000	0.00933349	-0.00672459
0.19700000	0.00932675	-0.00675733
0.19800000	0.00931997	-0.00679005
0.19900000	0.00931317	-0.00682274
0.20000000	0.00930633	-0.00685541
0.20100000	0.00929945	-0.00688806
0.20200000	0.00929255	-0.00692068
0.20300000	0.00928561	-0.00695328
0.20400000	0.00927864	-0.00698585
0.20500000	0.00927164	-0.00701840
0.20600000	0.00926461	-0.00705092
0.20700000	0.00925754	-0.00708342
0.20800000	0.00925044	-0.00711590
0.20900000	0.00924331	-0.00714835
0.21000000	0.00923614	-0.00718077
0.21100000	0.00922895	-0.00721317
0.21200000	0.00922172	-0.00724554
0.21300000	0.00921445	-0.00727789
0.21400000	0.00920716	-0.00731022
0.21500000	0.00919983	-0.00734251
0.21600000	0.00919248	-0.00737478
0.21700000	0.00918508	-0.00740703
0.21800000	0.00917766	-0.00743925
0.21900000	0.00917021	-0.00747144
0.22000000	0.00916272	-0.00750361
0.22100000	0.00915520	-0.00753575
0.22200000	0.00914765	-0.00756787
0.22300000	0.00914006	-0.00759995
0.22400000	0.00913245	-0.00763202
0.22500000	0.00912480	-0.00766405
0.22600000	0.00911712	-0.00769606
0.22700000	0.00910941	-0.00772804
0.22800000	0.00910166	-0.00775999
0.22900000	0.00909389	-0.00779192
0.23000000	0.00908608	-0.00782382
0.23100000	0.00907824	-0.00785569
0.23200000	0.00907037	-0.00788753
0.23300000	0.00906246	-0.00791935
0.23400000	0.00905453	-0.00795114
0.23500000	0.00904656	-0.00798290
0.23600000	0.00903856	-0.00801463
0.23700000	0.00903053	-0.00804633
0.23800000	0.00902247	-0.00807801
0.23900000	0.00901438	-0.00810966
0.24000000	0.00900625	-0.00814128
0.24100000	0.00899809	-0.00817287
0.24200000	0.00898991	-0.00820443
0.24300000	0.00898169	-0.00823596
0.24400000	0.00897343	-0.00826747
0.24500000	0.00896515	-0.00829894
0.24600000	0.00895684	-0.00833039
0.24700000	0.00894849	-0.00836181
0.24800000	0.00894011	-0.00839319
0.24900000	0.00893170	-0.00842455
0.25000000	0.00892326	-0.00845588
0.25100000	0.00891479	-0.00848718
0.25200000	0.00890629	-0.00851845
0.25300000	0.00889776	-0.00854969
0.25400000	0.00888919	-0.00858090
0.25500000	0.00888059	-0.00861208
0.25600000	0.00887197	-0.00864323
0.25700000	0.00886331	-0.00867435
0.25800000	0.00885462	-0.00870543
0.25900000	0.00884590	-0.00873649
0.26000000	0.00883714	-0.00876752
0.26100000	0.00882836	-0.00879851
0.26200000	0.00881955	-0.00882948
0.26300000	0.00881070	-0.00886041
0.26400000	0.00880183	-0.00889132
0.26500000	0.00879292	-0.00892219
0.26600000	0.00878398	-0.00895303
0.26700000	0.00877501	-0.00898384
0.26800000	0.00876601	-0.00901462
0.26900000	0.00875698	-0.00904536
0.27000000	0.00874792	-0.00907608
0.27100000	0.00873883	-0.00910676
0.27200000	0.00872971	-0.00913741
0.27300000	0.00872056	-0.00916803
0.27400000	0.00871137	-0.00919862
0.27500000	0.00870216	-0.00922917
0.27600000	0.00869292	-0.00925969
0.27700000	0.00868364	-0.00929018
0.27800000	0.00867434	-0.00932064
0.27900000	0.00866500	-0.00935106
0.28000000	0.00865563	-0.00938145
0.28100000	0.00864624	-0.00941181
0.28200000	0.00863681	-0.00944214
0.28300000	0.00862735	-0.00947243
0.28400000	0.00861786	-0.00950269
0.28500000	0.00860835	-0.00953291
0.28600000	0.00859880	-0.00956311
0.28700000	0.00858922	-0.00959326
0.28800000	0.00857961	-0.00962339
0.28900000	0.00856997	-0.00965348
0.29000000	0.00856031	-0.00968354
0.29100000	0.00855061	-0.00971356
0.29200000	0.00854088	-0.00974355
0.29300000	0.00853112	-0.00977350
0.29400000	0.00852133	-0.00980343
0.29500000	0.00851151	-0.00983331
0.29600000	0.00850166	-0.00986316
0.29700000	0.00849179	-0.00989298
0.29800000	0.00848188	-0.00992276
0.29900000	0.00847194	-0.00995251
0.30000000	0.00846197	-0.00998222
0.30100000	0.00845198	-0.01001190
0.30200000	0.00844195	-0.01004154
0.30300000	0.00843189	-0.01007115
0.30400000	0.00842181	-0.01010072
0.30500000	0.00841169	-0.01013026
0.30600000	0.00840155	-0.01015976
0.30700000	0.00839137	-0.01018922
0.30800000	0.00838117	-0.01021865
0.30900000	0.00837094	-0.01024805
0.31000000	0.00836067	-0.01027741
0.31100000	0.00835038	-0.01030673
0.31200000	0.00834006	-0.01033601
0.31300000	0.00832971	-0.01036526
0.31400000	0.00831933	-0.01039447
0.31500000	0.00830892	-0.01042365
0.31600000	0.00829848	-0.01045279
0.31700000	0.00828801	-0.01048189
0.31800000	0.00827752	-0.01051096
0.31900000	0.00826699	-0.01053999
0.32000000	0.00825644	-0.01056898
0.32100000	0.00824585	-0.01059794
0.32200000	0.00823524	-0.01062685
0.32300000	0.00822460	-0.01065574
0.32400000	0.00821393	-0.01068458
0.32500000	0.00820323	-0.01071339
0.32600000	0.00819250	-0.01074215
0.32700000	0.00818175	-0.01077088
0.32800000	0.00817096	-0.01079958
0.32900000	0.00816015	-0.01082823
0.33000000	0.00814931	-0.01085685
0.33100000	0.00813843	-0.01088543
0.33200000	0.00812753	-0.01091397
0.33300000	0.00811661	-0.01094247
0.33400000	0.00810565	-0.01097093
0.33500000	0.00809466	-0.01099936
0.33600000	0.00808365	-0.01102775
0.33700000	0.00807261	-0.01105610
0.33800000	0.00806154	-0.01108440
0.33900000	0.00805044	-0.01111268
0.34000000	0.00803931	-0.01114091
0.34100000	0.00802816	-0.01116910
0.34200000	0.00801698	-0.01119725
0.34300000	0.00800576	-0.01122537
0.34400000	0.00799452	-0.01125344
0.34500000	0.00798326	-0.01128148
0.34600000	0.00797196	-0.01130947
0.34700000	0.00796064	-0.01133743
0.34800000	0.00794929	-0.01136534
0.34900000	0.00793791	-0.01139322
0.35000000	0.00792650	-0.01142105
0.35100000	0.00791507	-0.01144885
0.35200000	0.00790360	-0.01147661
0.35300000	0.00789211	-0.01150432
0.35400000	0.00788059	-0.01153200
0.35500000	0.00786905	-0.01155963
0.35600000	0.00785747	-0.01158723
0.35700000	0.00784587	-0.01161478
0.35800000	0.00783425	-0.01164229
0.35900000	0.00782259	-0.01166976
0.36000000	0.00781091	-0.01169720
0.36100000	0.00779920	-0.01172459
0.36200000	0.00778746	-0.01175193
0.36300000	0.00777569	-0.01177924
0.36400000	0.00776390	-0.01180651
0.36500000	0.00775208	-0.01183373
0.36600000	0.00774023	-0.01186092
0.36700000	0.00772836	-0.01188806
0.36800000	0.00771645	-0.01191516
0.36900000	0.00770453	-0.01194222
0.37000000	0.00769257	-0.01196923
0.37100000	0.00768059	-0.01199621
0.37200000	0.00766858	-0.01202314
0.37300000	0.00765654	-0.01205003
0.37400000	0.00764448	-0.01207687
0.37500000	0.00763239	-0.01210368
0.37600000	0.00762027	-0.01213044
0.37700000	0.00760813	-0.01215716
0.37800000	0.00759596	-0.01218384
0.37900000	0.00758376	-0.01221048
0.38000000	0.00757154	-0.01223707
0.38100000	0.00755929	-0.01226362
0.38200000	0.00754701	-0.01229012
0.38300000	0.00753470	-0.01231658
0.38400000	0.00752237	-0.01234300
0.38500000	0.00751002	-0.01236938
0.38600000	0.00749764	-0.01239571
0.38700000	0.00748523	-0.01242200
0.38800000	0.00747279	-0.01244825
0.38900000	0.00746033	-0.01247445
0.39000000	0.00744784	-0.01250061
0.39100000	0.00743533	-0.01252672
0.39200000	0.00742279	-0.01255279
0.39300000	0.00741022	-0.01257882
0.39400000	0.00739763	-0.01260480
0.39500000	0.00738501	-0.01263074
0.39600000	0.00737237	-0.01265663
0.39700000	0.00735970	-0.01268248
0.39800000	0.00734701	-0.01270829
0.39900000	0.00733428	-0.01273405
0.40000000	0.00732154	-0.01275976
0.40100000	0.00730877	-0.01278543
0.40200000	0.00729597	-0.01281106
0.40300000	0.00728314	-0.01283664
0.40400000	0.00727029	-0.01286218
0.40500000	0.00725742	-0.01288767
0.40600000	0.00724452	-0.01291311
0.40700000	0.00723159	-0.01293851
0.40800000	0.00721864	-0.01296387
0.40900000	0.00720566	-0.01298918
0.41000000	0.00719266	-0.01301444
0.41100000	0.00717964	-0.01303966
0.41200000	0.00716658	-0.01306483
0.41300000	0.00715351	-0.01308996
0.41400000	0.00714040	-0.01311504
0.41500000	0.00712728	-0.01314007
0.41600000	0.00711412	-0.01316506
0.41700000	0.00710095	-0.01319000
0.41800000	0.00708774	-0.01321490
0.41900000	0.00707452	-0.01323975
0.42000000	0.00706126	-0.01326455
0.42100000	0.00704799	-0.01328931
0.42200000	0.00703469	-0.01331402
0.42300000	0.00702136	-0.01333868
0.42400000	0.00700801	-0.01336330
0.42500000	0.00699463	-0.01338787
0.42600000	0.00698123	-0.01341239
0.42700000	0.00696781	-0.01343687
0.42800000	0.00695436	-0.01346129
0.42900000	0.00694089	-0.01348567
0.43000000	0.00692739	-0.01351001
0.43100000	0.00691387	-0.01353429
0.43200000	0.00690032	-0.01355853
0.43300000	0.00688675	-0.01358272
0.43400000	0.00687315	-0.01360687
0.43500000	0.00685953	-0.01363096
0.43600000	0.00684589	-0.01365501
0.43700000	0.00683222	-0.01367901
0.43800000	0.00681853	-0.01370296
0.43900000	0.00680482	-0.01372687
0.44000000	0.00679108	-0.01375072
0.44100000	0.00677732	-0.01377453
0.44200000	0.00676353	-0.01379829
0.44300000	0.00674972	-0.01382200
0.44400000	0.00673589	-0.01384566
0.44500000	0.00672203	-0.01386928
0.44600000	0.00670815	-0.01389284
0.44700000	0.00669424	-0.01391636
0.44800000	0.00668032	-0.01393983
0.44900000	0.00666636	-0.01396324
0.45000000	0.00665239	-0.01398661
0.45100000	0.00663839	-0.01400993
0.45200000	0.00662437	-0.01403321
0.45300000	0.00661032	-0.01405643
0.45400000	0.00659626	-0.01407960
0.45500000	0.00658217	-0.01410272
0.45600000	0.00656805	-0.01412580
0.45700000	0.00655391	-0.01414882
0.45800000	0.00653975	-0.01417180
0.45900000	0.00652557	-0.01419472
0.46000000	0.00651136	-0.01421760
0.46100000	0.00649714	-0.01424042
0.46200000	0.00648288	-0.01426320
0.46300000	0.00646861	-0.01428592
0.46400000	0.00645431	-0.01430860
0.46500000	0.00643999	-0.01433122
0.46600000	0.00642565	-0.01435380
0.46700000	0.00641128	-0.01437632
0.46800000	0.00639690	-0.01439879
0.46900000	0.00638249	-0.01442122
0.47000000	0.00636805	-0.01444359
0.47100000	0.00635360	-0.01446591
0.47200000	0.00633912	-0.01448818
0.47300000	0.00632462	-0.01451040
0.47400000	0.00631010	-0.01453257
0.47500000	0.00629556	-0.01455469
0.47600000	0.00628099	-0.01457676
0.47700000	0.00626640	-0.01459877
0.47800000	0.00625179	-0.01462074
0.47900000	0.00623716	-0.01464265
0.48000000	0.00622251	-0.01466451
0.48100000	0.00620783	-0.01468632
0.48200000	0.00619314	-0.01470808
0.48300000	0.00617842	-0.01472979
0.48400000	0.00616368	-0.01475145
0.48500000	0.00614892	-0.01477305
0.48600000	0.00613413	-0.01479460
0.48700000	0.00611933	-0.01481610
0.48800000	0.00610450	-0.01483755
0.48900000	0.00608965	-0.01485895
0.49000000	0.00607478	-0.01488029
0.49100000	0.00605989	-0.01490158
0.49200000	0.00604498	-0.01492282
0.49300000	0.00603004	-0.01494401
0.49400000	0.00601509	-0.01496514
0.49500000	0.00600011	-0.01498623
0.49600000	0.00598512	-0.01500726
0.49700000	0.00597010	-0.01502823
0.49800000	0.00595506	-0.01504916
0.49900000	0.00594000	-0.01507003
0.50000000	0.00592492	-0.01509085
0.50100000	0.00590982	-0.01511161
0.50200000	0.00589470	-0.01513233
0.50300000	0.00587956	-0.01515299
0.50400000	0.00586439	-0.01517359
0.50500000	0.00584921	-0.01519415
0.50600000	0.00583400	-0.01521464
0.50700000	0.00581878	-0.01523509
0.50800000	0.00580353	-0.01525548
0.50900000	0.00578827	-0.01527582
0.51000000	0.00577298	-0.01529611
0.51100000	0.00575768	-0.01531634
0.51200000	0.00574235	-0.01533652
0.51300000	0.00572700	-0.01535664
0.51400000	0.00571164	-0.01537671
0.51500000	0.00569625	-0.01539673
0.51600000	0.00568084	-0.01541669
0.51700000	0.00566542	-0.01543660
0.51800000	0.00564997	-0.01545646
0.51900000	0.00563450	-0.01547626
0.52000000	0.00561902	-0.01549600
0.52100000	0.00560351	-0.01551569
0.52200000	0.00558799	-0.01553533
0.52300000	0.00557244	-0.01555491
0.52400000	0.00555688	-0.01557444
0.52500000	0.00554129	-0.01559392
0.52600000	0.00552569	-0.01561333
0.52700000	0.00551006	-0.01563270
0.52800000	0.00549442	-0.01565201
0.52900000	0.00547876	-0.01567126
0.53000000	0.00546308	-0.01569046
0.53100000	0.00544738	-0.01570960
0.53200000	0.00543166	-0.01572869
0.53300000	0.00541592	-0.01574773
0.53400000	0.00540017	-0.01576670
0.53500000	0.00538439	-0.01578563
0.53600000	0.00536859	-0.01580449
0.53700000	0.00535278	-0.01582331
0.53800000	0.00533695	-0.01584206
0.53900000	0.00532110	-0.01586076
0.54000000	0.00530523	-0.01587941
0.54100000	0.00528934	-0.01589800
0.54200000	0.00527343	-0.01591653
0.54300000	0.00525750	-0.01593501
0.54400000	0.00524156	-0.01595343
0.54500000	0.00522560	-0.01597180
0.54600000	0.00520962	-0.01599011
0.54700000	0.00519362	-0.01600836
0.54800000	0.00517760	-0.01602656
0.54900000	0.00516156	-0.01604470
0.55000000	0.00514551	-0.01606279
0.55100000	0.00512944	-0.01608082
0.55200000	0.00511335	-0.01609879
0.55300000	0.00509724	-0.01611670
0.55400000	0.00508112	-0.01613456
0.55500000	0.00506497	-0.01615237
0.55600000	0.00504881	-0.01617011
0.55700000	0.00503263	-0.01618780
0.55800000	0.00501644	-0.01620543
0.55900000	0.00500022	-0.01622301
0.56000000	0.00498399	-0.01624053
0.56100000	0.00496774	-0.01625799
0.56200000	0.00495147	-0.01627539
0.56300000	0.00493519	-0.01629274
0.56400000	0.00491889	-0.01631003
0.56500000	0.00490257	-0.01632726
0.56600000	0.00488623	-0.01634444
0.56700000	0.00486988	-0.01636156
0.56800000	0.00485351	-0.01637862
0.56900000	0.00483712	-0.01639562
0.57000000	0.00482072	-0.01641257
0.57100000	0.00480430	-0.01642946
0.57200000	0.00478786	-0.01644629
0.57300000	0.00477141	-0.01646306
0.57400000	0.00475493	-0.01647978
0.57500000	0.00473845	-0.01649643
0.57600000	0.00472194	-0.01651303
0.57700000	0.00470542	-0.01652958
0.57800000	0.00468888	-0.01654606
0.57900000	0.00467233	-0.01656248
0.58000000	0.00465576	-0.01657885
0.58100000	0.00463917	-0.01659516
0.58200000	0.00462257	-0.01661141
0.58300000	0.00460595	-0.01662760
0.58400000	0.00458931	-0.01664374
0.58500000	0.00457266	-0.01665982
0.58600000	0.00455599	-0.01667583
