Time(s)	Phi(rad)	Angular velocity (rad/s)
0.00000000	-0.50000000	0.00000000
0.00100000	-0.49999910	0.00180891
0.00200000	-0.49999638	0.00361782
0.00300000	-0.49999186	0.00542671
0.00400000	-0.49998553	0.00723560
0.00500000	-0.49997739	0.00904446
0.00600000	-0.49996744	0.01085329
0.00700000	-0.49995568	0.01266209
0.00800000	-0.49994212	0.01447086
0.00900000	-0.49992674	0.01627957
0.01000000	-0.49990956	0.01808824
0.01100000	-0.49989056	0.01989685
0.01200000	-0.49986976	0.02170540
0.01300000	-0.49984715	0.02351388
0.01400000	-0.49982274	0.02532228
0.01500000	-0.49979651	0.02713060
0.01600000	-0.49976847	0.02893884
0.01700000	-0.49973863	0.03074698
0.01800000	-0.49970698	0.03255502
0.01900000	-0.49967352	0.03436296
0.02000000	-0.49963825	0.03617079
0.02100000	-0.49960118	0.03797850
0.02200000	-0.49956230	0.03978609
0.02300000	-0.49952161	0.04159355
0.02400000	-0.49947911	0.04340088
0.02500000	-0.49943481	0.04520806
0.02600000	-0.49938869	0.04701510
0.02700000	-0.49934078	0.04882198
0.02800000	-0.49929105	0.05062871
0.02900000	-0.49923952	0.05243527
0.03000000	-0.49918618	0.05424166
0.03100000	-0.49913104	0.05604788
0.03200000	-0.49907408	0.05785391
0.03300000	-0.49901533	0.05965975
0.03400000	-0.49895476	0.06146540
0.03500000	-0.49889240	0.06327085
0.03600000	-0.49882822	0.06507609
0.03700000	-0.49876224	0.06688112
0.03800000	-0.49869446	0.06868593
0.03900000	-0.49862487	0.07049051
0.04000000	-0.49855348	0.07229486
0.04100000	-0.49848028	0.07409898
0.04200000	-0.49840528	0.07590286
0.04300000	-0.49832848	0.07770648
0.04400000	-0.49824987	0.07950986
0.04500000	-0.49816946	0.08131297
0.04600000	-0.49808724	0.08311581
0.04700000	-0.49800323	0.08491839
0.04800000	-0.49791741	0.08672068
0.04900000	-0.49782979	0.08852269
0.05000000	-0.49774036	0.09032441
0.05100000	-0.49764914	0.09212583
0.05200000	-0.49755611	0.09392695
0.05300000	-0.49746128	0.09572776
0.05400000	-0.49736465	0.09752826
0.05500000	-0.49726623	0.09932844
0.05600000	-0.49716600	0.10112829
0.05700000	-0.49706397	0.10292781
0.05800000	-0.49696014	0.10472699
0.05900000	-0.49685452	0.10652582
0.06000000	-0.49674709	0.10832431
0.06100000	-0.49663787	0.11012244
0.06200000	-0.49652685	0.11192020
0.06300000	-0.49641403	0.11371760
0.06400000	-0.49629941	0.11551463
0.06500000	-0.49618300	0.11731127
0.06600000	-0.49606479	0.11910753
0.06700000	-0.49594478	0.12090339
0.06800000	-0.49582298	0.12269886
0.06900000	-0.49569939	0.12449392
0.07000000	-0.49557400	0.12628857
0.07100000	-0.49544681	0.12808281
0.07200000	-0.49531783	0.12987663
0.07300000	-0.49518706	0.13167001
0.07400000	-0.49505449	0.13346296
0.07500000	-0.49492013	0.13525548
0.07600000	-0.49478398	0.13704754
0.07700000	-0.49464604	0.13883915
0.07800000	-0.49450630	0.14063031
0.07900000	-0.49436478	0.14242100
0.08000000	-0.49422146	0.14421122
0.08100000	-0.49407635	0.14600097
0.08200000	-0.49392946	0.14779023
0.08300000	-0.49378077	0.14957901
0.08400000	-0.49363030	0.15136729
0.08500000	-0.49347804	0.15315507
0.08600000	-0.49332399	0.15494235
0.08700000	-0.49316815	0.15672911
0.08800000	-0.49301053	0.15851536
0.08900000	-0.49285112	0.16030108
0.09000000	-0.49268993	0.16208627
0.09100000	-0.49252695	0.16387093
0.09200000	-0.49236219	0.16565504
0.09300000	-0.49219564	0.16743861
0.09400000	-0.49202731	0.16922162
0.09500000	-0.49185720	0.17100407
0.09600000	-0.49168530	0.17278596
0.09700000	-0.49151163	0.17456728
0.09800000	-0.49133617	0.17634802
0.09900000	-0.49115893	0.17812817
0.10000000	-0.49097991	0.17990773
0.10100000	-0.49079912	0.18168670
0.10200000	-0.49061654	0.18346507
0.10300000	-0.49043219	0.18524283
0.10400000	-0.49024605	0.18701998
0.10500000	-0.49005815	0.18879650
0.10600000	-0.48986846	0.19057241
0.10700000	-0.48967700	0.19234768
0.10800000	-0.48948377	0.19412231
0.10900000	-0.48928876	0.19589630
0.11000000	-0.48909197	0.19766964
0.11100000	-0.48889342	0.19944232
0.11200000	-0.48869309	0.20121434
0.11300000	-0.48849099	0.20298570
0.11400000	-0.48828712	0.20475638
0.11500000	-0.48808148	0.20652638
0.11600000	-0.48787407	0.20829570
0.11700000	-0.48766489	0.21006433
0.11800000	-0.48745394	0.21183226
0.11900000	-0.48724122	0.21359948
0.12000000	-0.48702674	0.21536600
0.12100000	-0.48681049	0.21713180
0.12200000	-0.48659248	0.21889688
0.12300000	-0.48637270	0.22066123
0.12400000	-0.48615115	0.22242485
0.12500000	-0.48592785	0.22418773
0.12600000	-0.48570278	0.22594987
0.12700000	-0.48547595	0.22771126
0.12800000	-0.48524736	0.22947188
0.12900000	-0.48501701	0.23123175
0.13000000	-0.48478489	0.23299085
0.13100000	-0.48455102	0.23474917
0.13200000	-0.48431540	0.23650671
0.13300000	-0.48407801	0.23826346
0.13400000	-0.48383887	0.24001943
0.13500000	-0.48359797	0.24177459
0.13600000	-0.48335532	0.24352895
0.13700000	-0.48311092	0.24528250
0.13800000	-0.48286476	0.24703523
0.13900000	-0.48261685	0.24878714
0.14000000	-0.48236718	0.25053822
0.14100000	-0.48211577	0.25228846
0.14200000	-0.48186261	0.25403787
0.14300000	-0.48160769	0.25578643
0.14400000	-0.48135103	0.25753413
0.14500000	-0.48109263	0.25928098
0.14600000	-0.48083247	0.26102696
0.14700000	-0.48057057	0.26277208
0.14800000	-0.48030693	0.26451632
0.14900000	-0.48004154	0.26625967
0.15000000	-0.47977441	0.26800214
0.15100000	-0.47950554	0.26974371
0.15200000	-0.47923492	0.27148439
0.15300000	-0.47896257	0.27322415
0.15400000	-0.47868847	0.27496301
0.15500000	-0.47841264	0.27670095
0.15600000	-0.47813507	0.27843796
0.15700000	-0.47785577	0.28017404
0.15800000	-0.47757473	0.28190919
0.15900000	-0.47729195	0.28364340
0.16000000	-0.47700744	0.28537666
0.16100000	-0.47672120	0.28710896
0.16200000	-0.47643322	0.28884031
0.16300000	-0.47614352	0.29057069
0.16400000	-0.47585208	0.29230010
0.16500000	-0.47555892	0.29402853
0.16600000	-0.47526402	0.29575598
0.16700000	-0.47496741	0.29748244
0.16800000	-0.47466906	0.29920790
0.16900000	-0.47436899	0.30093236
0.17000000	-0.47406720	0.30265582
0.17100000	-0.47376368	0.30437826
0.17200000	-0.47345844	0.30609968
0.17300000	-0.47315148	0.30782008
0.17400000	-0.47284280	0.30953945
0.17500000	-0.47253240	0.31125778
0.17600000	-0.47222029	0.31297507
0.17700000	-0.47190645	0.31469131
0.17800000	-0.47159090	0.31640649
0.17900000	-0.47127364	0.31812062
0.18000000	-0.47095466	0.31983368
0.18100000	-0.47063397	0.32154566
0.18200000	-0.47031157	0.32325657
0.18300000	-0.46998746	0.32496639
0.18400000	-0.46966164	0.32667512
0.18500000	-0.46933411	0.32838276
0.18600000	-0.46900487	0.33008930
0.18700000	-0.46867393	0.33179472
0.18800000	-0.46834129	0.33349903
0.18900000	-0.46800694	0.33520223
0.19000000	-0.46767088	0.33690429
0.19100000	-0.46733313	0.33860523
0.19200000	-0.46699367	0.34030503
0.19300000	-0.46665252	0.34200368
0.19400000	-0.46630967	0.34370118
0.19500000	-0.46596512	0.34539753
0.19600000	-0.46561887	0.34709272
0.19700000	-0.46527093	0.34878674
0.19800000	-0.46492130	0.35047959
0.19900000	-0.46456997	0.35217126
0.20000000	-0.46421696	0.35386174
0.20100000	-0.46386225	0.35555103
0.20200000	-0.46350585	0.35723913
0.20300000	-0.46314777	0.35892602
0.20400000	-0.46278800	0.36061171
0.20500000	-0.46242655	0.36229618
0.20600000	-0.46206341	0.36397943
0.20700000	-0.46169859	0.36566145
0.20800000	-0.46133209	0.36734224
0.20900000	-0.46096391	0.36902179
0.21000000	-0.46059405	0.37070010
0.21100000	-0.46022251	0.37237716
0.21200000	-0.45984929	0.37405296
0.21300000	-0.45947440	0.37572750
0.21400000	-0.45909784	0.37740077
0.21500000	-0.45871960	0.37907277
0.21600000	-0.45833969	0.38074349
0.21700000	-0.45795811	0.38241293
0.21800000	-0.45757487	0.38408107
0.21900000	-0.45718995	0.38574792
0.22000000	-0.45680337	0.38741346
0.22100000	-0.45641513	0.38907770
0.22200000	-0.45602522	0.39074062
0.22300000	-0.45563365	0.39240222
0.22400000	-0.45524041	0.39406249
0.22500000	-0.45484552	0.39572143
0.22600000	-0.45444897	0.39737903
0.22700000	-0.45405076	0.39903529
0.22800000	-0.45365090	0.40069019
0.22900000	-0.45324938	0.40234374
0.23000000	-0.45284622	0.40399593
0.23100000	-0.45244139	0.40564676
0.23200000	-0.45203492	0.40729620
0.23300000	-0.45162680	0.40894427
0.23400000	-0.45121703	0.41059096
0.23500000	-0.45080562	0.41223625
0.23600000	-0.45039256	0.41388014
0.23700000	-0.44997786	0.41552263
0.23800000	-0.44956152	0.41716372
0.23900000	-0.44914353	0.41880339
0.24000000	-0.44872391	0.42044163
0.24100000	-0.44830265	0.42207846
0.24200000	-0.44787976	0.42371385
0.24300000	-0.44745522	0.42534780
0.24400000	-0.44702906	0.42698030
0.24500000	-0.44660127	0.42861136
0.24600000	-0.44617184	0.43024096
0.24700000	-0.44574078	0.43186910
0.24800000	-0.44530810	0.43349578
0.24900000	-0.44487379	0.43512098
0.25000000	-0.44443786	0.43674470
0.25100000	-0.44400030	0.43836693
0.25200000	-0.44356113	0.43998768
0.25300000	-0.44312033	0.44160693
0.25400000	-0.44267791	0.44322467
0.25500000	-0.44223388	0.44484091
0.25600000	-0.44178823	0.44645564
0.25700000	-0.44134097	0.44806884
0.25800000	-0.44089210	0.44968052
0.25900000	-0.44044161	0.45129067
0.26000000	-0.43998952	0.45289928
0.26100000	-0.43953581	0.45450634
0.26200000	-0.43908050	0.45611186
0.26300000	-0.43862359	0.45771582
0.26400000	-0.43816507	0.45931823
0.26500000	-0.43770495	0.46091906
0.26600000	-0.43724324	0.46251832
0.26700000	-0.43677992	0.46411601
0.26800000	-0.43631500	0.46571211
0.26900000	-0.43584849	0.46730662
0.27000000	-0.43538039	0.46889954
0.27100000	-0.43491070	0.47049086
0.27200000	-0.43443941	0.47208056
0.27300000	-0.43396654	0.47366866
0.27400000	-0.43349207	0.47525514
0.27500000	-0.43301603	0.47683999
0.27600000	-0.43253840	0.47842321
0.27700000	-0.43205918	0.48000480
0.27800000	-0.43157839	0.48158474
0.27900000	-0.43109601	0.48316304
0.28000000	-0.43061206	0.48473968
0.28100000	-0.43012653	0.48631467
0.28200000	-0.42963943	0.48788799
0.28300000	-0.42915076	0.48945963
0.28400000	-0.42866051	0.49102961
0.28500000	-0.42816870	0.49259790
0.28600000	-0.42767532	0.49416450
0.28700000	-0.42718037	0.49572941
0.28800000	-0.42668386	0.49729262
0.28900000	-0.42618579	0.49885412
0.29000000	-0.42568615	0.50041391
0.29100000	-0.42518496	0.50197199
0.29200000	-0.42468221	0.50352834
0.29300000	-0.42417791	0.50508297
0.29400000	-0.42367205	0.50663586
0.29500000	-0.42316463	0.50818701
0.29600000	-0.42265567	0.50973642
0.29700000	-0.42214516	0.51128408
0.29800000	-0.42163311	0.51282997
0.29900000	-0.42111950	0.51437411
0.30000000	-0.42060436	0.51591648
0.30100000	-0.42008767	0.51745707
0.30200000	-0.41956944	0.51899588
0.30300000	-0.41904968	0.52053291
0.30400000	-0.41852838	0.52206815
0.30500000	-0.41800554	0.52360159
0.30600000	-0.41748118	0.52513323
0.30700000	-0.41695528	0.52666306
0.30800000	-0.41642785	0.52819107
0.30900000	-0.41589890	0.52971727
0.31000000	-0.41536842	0.53124164
0.31100000	-0.41483642	0.53276417
0.31200000	-0.41430289	0.53428488
0.31300000	-0.41376785	0.53580373
0.31400000	-0.41323128	0.53732075
0.31500000	-0.41269321	0.53883590
0.31600000	-0.41215361	0.54034920
0.31700000	-0.41161251	0.54186063
0.31800000	-0.41106989	0.54337019
0.31900000	-0.41052577	0.54487788
0.32000000	-0.40998014	0.54638368
0.32100000	-0.40943300	0.54788760
0.32200000	-0.40888436	0.54938962
0.32300000	-0.40833422	0.55088974
0.32400000	-0.40778259	0.55238796
0.32500000	-0.40722945	0.55388427
0.32600000	-0.40667482	0.55537866
0.32700000	-0.40611869	0.55687113
0.32800000	-0.40556108	0.55836167
0.32900000	-0.40500197	0.55985028
0.33000000	-0.40444138	0.56133695
0.33100000	-0.40387930	0.56282167
0.33200000	-0.40331574	0.56430445
0.33300000	-0.40275069	0.56578527
0.33400000	-0.40218417	0.56726413
0.33500000	-0.40161616	0.56874102
0.33600000	-0.40104668	0.57021594
0.33700000	-0.40047573	0.57168888
0.33800000	-0.39990331	0.57315984
0.33900000	-0.39932941	0.57462881
0.34000000	-0.39875405	0.57609578
0.34100000	-0.39817722	0.57756076
0.34200000	-0.39759893	0.57902373
0.34300000	-0.39701918	0.58048468
0.34400000	-0.39643796	0.58194362
0.34500000	-0.39585529	0.58340054
0.34600000	-0.39527116	0.58485543
0.34700000	-0.39468558	0.58630828
0.34800000	-0.39409855	0.58775910
0.34900000	-0.39351006	0.58920787
0.35000000	-0.39292013	0.59065459
0.35100000	-0.39232875	0.59209926
0.35200000	-0.39173593	0.59354186
0.35300000	-0.39114167	0.59498239
0.35400000	-0.39054597	0.59642086
0.35500000	-0.38994883	0.59785724
0.35600000	-0.38935026	0.59929154
0.35700000	-0.38875025	0.60072376
0.35800000	-0.38814881	0.60215387
0.35900000	-0.38754594	0.60358189
0.36000000	-0.38694165	0.60500780
0.36100000	-0.38633593	0.60643160
0.36200000	-0.38572879	0.60785329
0.36300000	-0.38512022	0.60927285
0.36400000	-0.38451024	0.61069028
0.36500000	-0.38389884	0.61210558
0.36600000	-0.38328603	0.61351875
0.36700000	-0.38267181	0.61492976
0.36800000	-0.38205617	0.61633863
0.36900000	-0.38143913	0.61774535
0.37000000	-0.38082068	0.61914990
0.37100000	-0.38020083	0.62055229
0.37200000	-0.37957958	0.62195250
0.37300000	-0.37895693	0.62335054
0.37400000	-0.37833288	0.62474639
0.37500000	-0.37770744	0.62614006
0.37600000	-0.37708060	0.62753154
0.37700000	-0.37645237	0.62892081
0.37800000	-0.37582276	0.63030789
0.37900000	-0.37519176	0.63169275
0.38000000	-0.37455938	0.63307540
0.38100000	-0.37392561	0.63445582
0.38200000	-0.37329047	0.63583402
0.38300000	-0.37265394	0.63720999
0.38400000	-0.37201605	0.63858373
0.38500000	-0.37137678	0.63995522
0.38600000	-0.37073614	0.64132447
0.38700000	-0.37009413	0.64269146
0.38800000	-0.36945076	0.64405619
0.38900000	-0.36880602	0.64541866
0.39000000	-0.36815992	0.64677886
0.39100000	-0.36751246	0.64813679
0.39200000	-0.36686365	0.64949244
0.39300000	-0.36621348	0.65084580
0.39400000	-0.36556196	0.65219688
0.39500000	-0.36490908	0.65354565
0.39600000	-0.36425487	0.65489213
0.39700000	-0.36359930	0.65623630
0.39800000	-0.36294239	0.65757816
0.39900000	-0.36228415	0.65891770
0.40000000	-0.36162456	0.66025492
0.40100000	-0.36096364	0.66158981
0.40200000	-0.36030138	0.66292237
0.40300000	-0.35963779	0.66425260
0.40400000	-0.35897288	0.66558048
0.40500000	-0.35830663	0.66690601
0.40600000	-0.35763907	0.66822918
0.40700000	-0.35697018	0.66955000
0.40800000	-0.35629997	0.67086845
0.40900000	-0.35562844	0.67218453
0.41000000	-0.35495560	0.67349824
0.41100000	-0.35428145	0.67480957
0.41200000	-0.35360598	0.67611851
0.41300000	-0.35292921	0.67742507
0.41400000	-0.35225113	0.67872922
0.41500000	-0.35157175	0.68003098
0.41600000	-0.35089107	0.68133033
0.41700000	-0.35020909	0.68262726
0.41800000	-0.34952582	0.68392178
0.41900000	-0.34884125	0.68521388
0.42000000	-0.34815539	0.68650356
0.42100000	-0.34746825	0.68779080
0.42200000	-0.34677981	0.68907560
0.42300000	-0.34609010	0.69035796
0.42400000	-0.34539910	0.69163787
0.42500000	-0.34470682	0.69291533
0.42600000	-0.34401327	0.69419033
0.42700000	-0.34331844	0.69546287
0.42800000	-0.34262234	0.69673294
0.42900000	-0.34192498	0.69800053
0.43000000	-0.34122634	0.69926565
0.43100000	-0.34052645	0.70052828
0.43200000	-0.33982529	0.70178843
0.43300000	-0.33912287	0.70304608
0.43400000	-0.33841920	0.70430123
0.43500000	-0.33771427	0.70555388
0.43600000	-0.33700809	0.70680402
0.43700000	-0.33630066	0.70805164
0.43800000	-0.33559199	0.70929675
0.43900000	-0.33488207	0.71053933
0.44000000	-0.33417091	0.71177938
0.44100000	-0.33345851	0.71301690
0.44200000	-0.33274488	0.71425187
0.44300000	-0.33203001	0.71548431
0.44400000	-0.33131391	0.71671419
0.44500000	-0.33059658	0.71794152
0.44600000	-0.32987803	0.71916629
0.44700000	-0.32915825	0.72038849
0.44800000	-0.32843725	0.72160812
0.44900000	-0.32771504	0.72282518
0.45000000	-0.32699161	0.72403966
0.45100000	-0.32626696	0.72525156
0.45200000	-0.32554110	0.72646086
0.45300000	-0.32481404	0.72766758
0.45400000	-0.32408577	0.72887169
0.45500000	-0.32335630	0.73007319
0.45600000	-0.32262562	0.73127209
0.45700000	-0.32189375	0.73246838
0.45800000	-0.32116069	0.73366204
0.45900000	-0.32042643	0.73485308
0.46000000	-0.31969098	0.73604149
0.46100000	-0.31895435	0.73722727
0.46200000	-0.31821653	0.73841041
0.46300000	-0.31747753	0.73959090
0.46400000	-0.31673735	0.74076875
0.46500000	-0.31599599	0.74194394
0.46600000	-0.31525346	0.74311647
0.46700000	-0.31450976	0.74428634
0.46800000	-0.31376489	0.74545355
0.46900000	-0.31301886	0.74661807
0.47000000	-0.31227166	0.74777993
0.47100000	-0.31152330	0.74893910
0.47200000	-0.31077378	0.75009558
0.47300000	-0.31002311	0.75124937
0.47400000	-0.30927128	0.75240046
0.47500000	-0.30851831	0.75354885
0.47600000	-0.30776419	0.75469454
0.47700000	-0.30700892	0.75583751
0.47800000	-0.30625251	0.75697777
0.47900000	-0.30549497	0.75811530
0.48000000	-0.30473628	0.75925011
0.48100000	-0.30397647	0.76038219
0.48200000	-0.30321552	0.76151154
0.48300000	-0.30245345	0.76263814
0.48400000	-0.30169025	0.76376200
0.48500000	-0.30092592	0.76488311
0.48600000	-0.30016048	0.76600147
0.48700000	-0.29939392	0.76711707
0.48800000	-0.29862625	0.76822991
0.48900000	-0.29785746	0.76933997
0.49000000	-0.29708757	0.77044727
0.49100000	-0.29631657	0.77155179
0.49200000	-0.29554447	0.77265352
0.49300000	-0.29477127	0.77375247
0.49400000	-0.29399696	0.77484863
0.49500000	-0.29322157	0.77594199
0.49600000	-0.29244508	0.77703255
0.49700000	-0.29166751	0.77812031
0.49800000	-0.29088884	0.77920526
0.49900000	-0.29010910	0.78028739
0.50000000	-0.28932827	0.78136671
0.50100000	-0.28854636	0.78244320
0.50200000	-0.28776338	0.78351686
0.50300000	-0.28697933	0.78458769
0.50400000	-0.28619421	0.78565568
0.50500000	-0.28540802	0.78672084
0.50600000	-0.28462077	0.78778314
0.50700000	-0.28383246	0.78884260
0.50800000	-0.28304309	0.78989920
0.50900000	-0.28225266	0.79095294
0.51000000	-0.28146118	0.79200382
0.51100000	-0.28066865	0.79305182
0.51200000	-0.27987508	0.79409696
0.51300000	-0.27908046	0.79513922
0.51400000	-0.27828480	0.79617859
0.51500000	-0.27748811	0.79721508
0.51600000	-0.27669037	0.79824868
0.51700000	-0.27589161	0.79927939
0.51800000	-0.27509182	0.80030719
0.51900000	-0.27429100	0.80133209
0.52000000	-0.27348915	0.80235409
0.52100000	-0.27268629	0.80337317
0.52200000	-0.27188241	0.80438933
0.52300000	-0.27107751	0.80540257
0.52400000	-0.27027161	0.80641289
0.52500000	-0.26946469	0.80742027
0.52600000	-0.26865677	0.80842472
0.52700000	-0.26784784	0.80942624
0.52800000	-0.26703792	0.81042481
0.52900000	-0.26622699	0.81142043
0.53000000	-0.26541508	0.81241310
0.53100000	-0.26460217	0.81340281
0.53200000	-0.26378827	0.81438957
0.53300000	-0.26297339	0.81537336
0.53400000	-0.26215753	0.81635418
0.53500000	-0.26134068	0.81733203
0.53600000	-0.26052286	0.81830690
0.53700000	-0.25970407	0.81927880
0.53800000	-0.25888431	0.82024770
0.53900000	-0.25806358	0.82121362
0.54000000	-0.25724188	0.82217654
0.54100000	-0.25641923	0.82313646
0.54200000	-0.25559561	0.82409339
0.54300000	-0.25477104	0.82504730
0.54400000	-0.25394552	0.82599821
0.54500000	-0.25311905	0.82694610
0.54600000	-0.25229163	0.82789097
0.54700000	-0.25146327	0.82883282
0.54800000	-0.25063396	0.82977164
0.54900000	-0.24980372	0.83070743
0.55000000	-0.24897255	0.83164019
0.55100000	-0.24814044	0.83256991
0.55200000	-0.24730741	0.83349658
0.55300000	-0.24647345	0.83442021
0.55400000	-0.24563857	0.83534078
0.55500000	-0.24480277	0.83625831
0.55600000	-0.24396606	0.83717277
0.55700000	-0.24312843	0.83808417
0.55800000	-0.24228989	0.83899250
0.55900000	-0.24145045	0.83989776
0.56000000	-0.24061010	0.84079994
0.56100000	-0.23976885	0.84169905
0.56200000	-0.23892670	0.84259507
0.56300000	-0.23808366	0.84348801
0.56400000	-0.23723973	0.84437785
0.56500000	-0.23639490	0.84526460
0.56600000	-0.23554920	0.84614826
0.56700000	-0.23470261	0.84702881
0.56800000	-0.23385514	0.84790625
0.56900000	-0.23300680	0.84878058
0.57000000	-0.23215758	0.84965180
0.57100000	-0.23130750	0.85051990
0.57200000	-0.23045654	0.85138488
0.57300000	-0.22960473	0.85224674
0.57400000	-0.22875205	0.85310546
0.57500000	-0.22789852	0.85396105
0.57600000	-0.22704413	0.85481351
0.57700000	-0.22618889	0.85566282
0.57800000	-0.22533281	0.85650899
0.57900000	-0.22447588	0.85735201
0.58000000	-0.22361810	0.85819188
0.58100000	-0.22275949	0.85902859
0.58200000	-0.22190005	0.85986215
0.58300000	-0.22103977	0.86069254
0.58400000	-0.22017867	0.86151977
0.58500000	-0.21931673	0.86234382
0.58600000	-0.21845398	0.86316470
